0.0448608	
0.0430298	
0.0415039	
0.0427246	
0.0445557	
0.0448608	
0.045166	
0.0448608	
0.0482178	
0.0512695	
0.0509644	
0.0485229	
0.0442505	
0.0405884	
0.0390625	
0.0390625	
0.0390625	
0.0390625	
0.0393677	
0.0405884	
0.0436401	
0.0466919	
0.0494385	
0.0494385	
0.0476074	
0.0442505	
0.0424194	
0.043335	
0.0463867	
0.0512695	
0.0552368	
0.0558472	
0.0518799	
0.0466919	
0.0405884	
0.0366211	
0.0366211	
0.0402832	
0.0463867	
0.0482178	
0.0415039	
0.0350952	
0.0332642	
0.039978	
0.0485229	
0.0546265	
0.0570679	
0.0521851	
0.0479126	
0.0454712	
0.0500488	
0.0552368	
0.0549316	
0.0494385	
0.0491333	
0.055542	
0.0634766	
0.0634766	
0.0558472	
0.0491333	
0.0488281	
0.0500488	
0.0515747	
0.0509644	
0.0515747	
0.0524902	
0.0540161	
0.055542	
0.0558472	
0.055542	
0.0521851	
0.0491333	
0.050354	
0.050354	
0.0488281	
0.045166	
0.0427246	
0.0463867	
0.0500488	
0.050354	
0.0469971	
0.0415039	
0.0378418	
0.0372314	
0.0384521	
0.038147	
0.0378418	
0.0372314	
0.039978	
0.0424194	
0.0421143	
0.0396729	
0.0360107	
0.0378418	
0.0415039	
0.0454712	
0.0460815	
0.0457764	
0.0463867	
0.0457764	
0.045166	
0.0436401	
0.0427246	
0.0408936	
0.0393677	
0.0408936	
0.0457764	
0.0488281	
0.0497437	
0.0491333	
0.0479126	
0.0457764	
0.043335	
0.043335	
0.0460815	
0.0515747	
0.0561523	
0.0576782	
0.057373	
0.0567627	
0.0567627	
0.0558472	
0.0534058	
0.0512695	
0.0509644	
0.0521851	
0.0531006	
0.0527954	
0.050354	
0.0454712	
0.0427246	
0.0439453	
0.0482178	
0.0521851	
0.0518799	
0.0518799	
0.0531006	
0.0564575	
0.0585938	
0.0588989	
0.0598145	
0.0619507	
0.0643921	
0.0634766	
0.0576782	
0.0518799	
0.050354	
0.055542	
0.0646973	
0.0701904	
0.0714111	
0.0686646	
0.0662231	
0.0628662	
0.0601196	
0.0592041	
0.0610352	
0.0631714	
0.0640869	
0.0640869	
0.0634766	
0.0628662	
0.06073	
0.0598145	
0.0604248	
0.0601196	
0.0592041	
0.0564575	
0.055542	
0.0558472	
0.0564575	
0.0579834	
0.0592041	
0.0616455	
0.062561	
0.0622559	
0.0601196	
0.0592041	
0.057373	
0.0558472	
0.0549316	
0.055542	
0.0588989	
0.0616455	
0.0631714	
0.0616455	
0.0601196	
0.0579834	
0.0561523	
0.0564575	
0.0585938	
0.0616455	
0.0622559	
0.0598145	
0.0552368	
0.0527954	
0.0537109	
0.0567627	
0.0585938	
0.0570679	
0.0534058	
0.0494385	
0.0491333	
0.0518799	
0.0558472	
0.0576782	
0.0561523	
0.0546265	
0.0543213	
0.0543213	
0.0546265	
0.0537109	
0.0534058	
0.0531006	
0.0534058	
0.0543213	
0.0558472	
0.0567627	
0.0567627	
0.0570679	
0.0567627	
0.0561523	
0.0546265	
0.0537109	
0.0549316	
0.0579834	
0.0601196	
0.0622559	
0.0619507	
0.06073	
0.0592041	
0.0564575	
0.0558472	
0.0558472	
0.057373	
0.0585938	
0.0582886	
0.0564575	
0.0552368	
0.0561523	
0.0582886	
0.0592041	
0.0595093	
0.0595093	
0.0585938	
0.0546265	
0.0497437	
0.0469971	
0.0479126	
0.0494385	
0.0494385	
0.0506592	
0.0524902	
0.0549316	
0.0561523	
0.0558472	
0.0561523	
0.0558472	
0.0546265	
0.0521851	
0.0506592	
0.050354	
0.0509644	
0.0512695	
0.0518799	
0.0540161	
0.0564575	
0.0579834	
0.0561523	
0.0531006	
0.0518799	
0.0531006	
0.0543213	
0.0543213	
0.0518799	
0.0500488	
0.050354	
0.0518799	
0.0537109	
0.055542	
0.0564575	
0.0570679	
0.0576782	
0.0592041	
0.06073	
0.0622559	
0.0613403	
0.0595093	
0.0582886	
0.0567627	
0.055542	
0.0537109	
0.0521851	
0.0512695	
0.0506592	
0.0509644	
0.0500488	
0.0482178	
0.0473022	
0.0479126	
0.0509644	
0.0543213	
0.0558472	
0.0540161	
0.0506592	
0.0476074	
0.0479126	
0.0491333	
0.0497437	
0.0485229	
0.0479126	
0.050354	
0.0537109	
0.0561523	
0.0549316	
0.0515747	
0.0479126	
0.0463867	
0.0473022	
0.0500488	
0.0518799	
0.0524902	
0.0512695	
0.050354	
0.0479126	
0.0448608	
0.0427246	
0.0439453	
0.0476074	
0.0518799	
0.0531006	
0.0521851	
0.0509644	
0.0497437	
0.0479126	
0.043335	
0.0390625	
0.0369263	
0.0372314	
0.0396729	
0.0415039	
0.0439453	
0.0454712	
0.0454712	
0.0460815	
0.0463867	
0.0466919	
0.0469971	
0.0457764	
0.0448608	
0.043335	
0.0427246	
0.043335	
0.0439453	
0.0427246	
0.0430298	
0.043335	
0.0442505	
0.0424194	
0.0378418	
0.0332642	
0.0308228	
0.0311279	
0.0332642	
0.0363159	
0.0375366	
0.0372314	
0.0366211	
0.0387573	
0.0418091	
0.0418091	
0.0393677	
0.0372314	
0.038147	
0.0396729	
0.039978	
0.0384521	
0.0369263	
0.0369263	
0.0375366	
0.0384521	
0.0375366	
0.03479	
0.0317383	
0.0296021	
0.0299072	
0.0305176	
0.0302124	
0.0314331	
0.032959	
0.0360107	
0.0360107	
0.0357056	
0.0372314	
0.0390625	
0.0402832	
0.0393677	
0.0387573	
0.0393677	
0.0402832	
0.0411987	
0.0421143	
0.0436401	
0.045166	
0.0448608	
0.0436401	
0.0430298	
0.0442505	
0.0463867	
0.0466919	
0.0457764	
0.0454712	
0.0457764	
0.0476074	
0.0500488	
0.0494385	
0.0466919	
0.0427246	
0.0405884	
0.0418091	
0.0439453	
0.0445557	
0.0448608	
0.045166	
0.045166	
0.0445557	
0.0439453	
0.0427246	
0.0411987	
0.0393677	
0.0387573	
0.0405884	
0.0439453	
0.0473022	
0.0466919	
0.0439453	
0.0418091	
0.0430298	
0.0457764	
0.0485229	
0.0500488	
0.0512695	
0.0500488	
0.0476074	
0.0445557	
0.0430298	
0.043335	
0.0436401	
0.0445557	
0.0457764	
0.0463867	
0.0463867	
0.0457764	
0.0442505	
0.0424194	
0.0393677	
0.0375366	
0.0375366	
0.0384521	
0.039978	
0.0408936	
0.0424194	
0.043335	
0.0436401	
0.0430298	
0.0421143	
0.0436401	
0.0457764	
0.0485229	
0.0485229	
0.0469971	
0.0460815	
0.0457764	
0.0460815	
0.0460815	
0.0460815	
0.0454712	
0.0469971	
0.0482178	
0.0494385	
0.0488281	
0.0476074	
0.0476074	
0.0469971	
0.0466919	
0.0491333	
0.0518799	
0.0537109	
0.0531006	
0.0524902	
0.0518799	
0.0512695	
0.0509644	
0.0524902	
0.0543213	
0.0537109	
0.0500488	
0.0476074	
0.0463867	
0.0469971	
0.0473022	
0.0476074	
0.0485229	
0.0491333	
0.0506592	
0.0512695	
0.0515747	
0.050354	
0.0497437	
0.0497437	
0.050354	
0.0500488	
0.0479126	
0.0457764	
0.0445557	
0.0445557	
0.0448608	
0.0457764	
0.0482178	
0.0518799	
0.0537109	
0.0521851	
0.0479126	
0.0439453	
0.0411987	
0.0402832	
0.0402832	
0.0408936	
0.0448608	
0.0469971	
0.0479126	
0.045166	
0.0421143	
0.0390625	
0.0372314	
0.0357056	
0.03479	
0.03479	
0.03479	
0.0357056	
0.0372314	
0.0384521	
0.0378418	
0.0366211	
0.0350952	
0.032959	
0.0323486	
0.0311279	
0.0314331	
0.0323486	
0.0335693	
0.0338745	
0.0320435	
0.0311279	
0.0311279	
0.0314331	
0.0308228	
0.0317383	
0.0335693	
0.03479	
0.032959	
0.0299072	
0.0274658	
0.0231934	
0.0201416	
0.0186157	
0.0216675	
0.0244141	
0.0231934	
0.0177002	
0.0140381	
0.015564	
0.0198364	
0.0219727	
0.0204468	
0.0177002	
0.0164795	
0.0158691	
0.0140381	
0.012207	
0.012207	
0.012207	
0.0109863	
0.00946045	
0.00823975	
0.00793457	
0.00701904	
0.00701904	
0.00701904	
0.00793457	
0.00732422	
0.00915527	
0.0128174	
0.0164795	
0.0167847	
0.0137329	
0.0109863	
0.010376	
0.012207	
0.0149536	
0.0177002	
0.0192261	
0.0186157	
0.0158691	
0.0119019	
0.00854492	
0.00854492	
0.0125122	
0.0177002	
0.0216675	
0.0228882	
0.022583	
0.0222778	
0.0234985	
0.0253296	
0.0265503	
0.0280762	
0.0289917	
0.027771	
0.0271606	
0.0274658	
0.027771	
0.0250244	
0.020752	
0.0186157	
0.0210571	
0.0234985	
0.0228882	
0.0213623	
0.0213623	
0.0231934	
0.0253296	
0.0247192	
0.0222778	
0.0204468	
0.0201416	
0.0216675	
0.0244141	
0.0262451	
0.0265503	
0.0262451	
0.0247192	
0.0241089	
0.0228882	
0.0222778	
0.0228882	
0.0253296	
0.027771	
0.0286865	
0.0283813	
0.0274658	
0.0265503	
0.0256348	
0.0259399	
0.0265503	
0.0271606	
0.0265503	
0.0241089	
0.0222778	
0.0204468	
0.0201416	
0.0201416	
0.0204468	
0.0201416	
0.0198364	
0.0201416	
0.020752	
0.020752	
0.020752	
0.0204468	
0.0219727	
0.0238037	
0.0247192	
0.0247192	
0.0238037	
0.0241089	
0.0250244	
0.0253296	
0.0247192	
0.0234985	
0.022583	
0.0213623	
0.0204468	
0.0189209	
0.0183105	
0.0192261	
0.0216675	
0.0244141	
0.0253296	
0.0228882	
0.0201416	
0.0164795	
0.0149536	
0.0152588	
0.0170898	
0.0201416	
0.0219727	
0.0216675	
0.020752	
0.0201416	
0.0198364	
0.0189209	
0.0189209	
0.0201416	
0.0219727	
0.022583	
0.0210571	
0.0201416	
0.0210571	
0.0231934	
0.0234985	
0.0216675	
0.0195313	
0.0183105	
0.0195313	
0.0213623	
0.022583	
0.0234985	
0.0241089	
0.0244141	
0.0234985	
0.0216675	
0.0198364	
0.0189209	
0.0186157	
0.0186157	
0.0177002	
0.015564	
0.0143433	
0.0134277	
0.0140381	
0.0137329	
0.0140381	
0.0161743	
0.0189209	
0.0213623	
0.0216675	
0.0201416	
0.0198364	
0.0201416	
0.0210571	
0.022583	
0.0238037	
0.0231934	
0.0213623	
0.0186157	
0.0170898	
0.0186157	
0.0222778	
0.0253296	
0.0253296	
0.0238037	
0.0213623	
0.0198364	
0.0186157	
0.0183105	
0.0204468	
0.0228882	
0.0219727	
0.0192261	
0.017395	
0.0186157	
0.0192261	
0.0183105	
0.015564	
0.0134277	
0.0131226	
0.0146484	
0.017395	
0.020752	
0.0222778	
0.0222778	
0.0216675	
0.020752	
0.0204468	
0.0195313	
0.0183105	
0.0177002	
0.0177002	
0.0183105	
0.0192261	
0.0192261	
0.0186157	
0.0189209	
0.0198364	
0.0204468	
0.020752	
0.020752	
0.0204468	
0.0195313	
0.0167847	
0.0152588	
0.0152588	
0.0161743	
0.0167847	
0.0164795	
0.015564	
0.0152588	
0.0164795	
0.0195313	
0.0231934	
0.0241089	
0.0219727	
0.0180054	
0.0149536	
0.0134277	
0.0131226	
0.0140381	
0.0146484	
0.0149536	
0.0140381	
0.0143433	
0.0167847	
0.020752	
0.0228882	
0.0234985	
0.0241089	
0.0247192	
0.0250244	
0.0244141	
0.0250244	
0.0268555	
0.0280762	
0.027771	
0.0259399	
0.0231934	
0.0222778	
0.0222778	
0.0241089	
0.0247192	
0.0231934	
0.020752	
0.0216675	
0.0314331	
0.0500488	
0.0741577	
0.100098	
0.125122	
0.149841	
0.17334	
0.194397	
0.210876	
0.220337	
0.221252	
0.219727	
0.220337	
0.222778	
0.223389	
0.220947	
0.219727	
0.220032	
0.220947	
0.221558	
0.221558	
0.221558	
0.221252	
0.220642	
0.219727	
0.217896	
0.215149	
0.212097	
0.206299	
0.205994	
0.219421	
0.250854	
0.291748	
0.329895	
0.362244	
0.393982	
0.427551	
0.4599	
0.489197	
0.515747	
0.539551	
0.559998	
0.57251	
0.579224	
0.58075	
0.578308	
0.575256	
0.575562	
0.578003	
0.578308	
0.574341	
0.569763	
0.569153	
0.570374	
0.568848	
0.56427	
0.557861	
0.552673	
0.550232	
0.550232	
0.552063	
0.552063	
0.550537	
0.548096	
0.54718	
0.54718	
0.545044	
0.542297	
0.539246	
0.53772	
0.538025	
0.539246	
0.539551	
0.53894	
0.53894	
0.541992	
0.545044	
0.545044	
0.540161	
0.535583	
0.534058	
0.534058	
0.535889	
0.534973	
0.523071	
0.4953	
0.456543	
0.414124	
0.372314	
0.327759	
0.278625	
0.228882	
0.177002	
0.124512	
0.072937	
0.0247192	
-0.0183105	
-0.0564575	
-0.0900269	
-0.117798	
-0.137329	
-0.149536	
-0.153503	
-0.152588	
-0.150146	
-0.147705	
-0.145569	
-0.142212	
-0.138245	
-0.135193	
-0.133362	
-0.13092	
-0.13031	
-0.131531	
-0.132446	
-0.133057	
-0.131531	
-0.131531	
-0.132141	
-0.133057	
-0.133362	
-0.134888	
-0.137329	
-0.131836	
-0.112305	
-0.078125	
-0.0415039	
-0.0158691	
-0.00579834	
-0.00396729	
-0.00610352	
-0.00701904	
-0.00671387	
-0.00671387	
-0.00610352	
-0.00579834	
-0.00640869	
-0.00732422	
-0.00946045	
-0.0125122	
-0.0134277	
-0.0140381	
-0.0140381	
-0.0137329	
-0.0125122	
-0.010376	
-0.00946045	
-0.00946045	
-0.00976563	
-0.00946045	
-0.00823975	
-0.00762939	
-0.00854492	
-0.010376	
-0.0140381	
-0.0170898	
-0.0186157	
-0.0195313	
-0.0204468	
-0.020752	
-0.0204468	
-0.020752	
-0.0204468	
-0.0210571	
-0.0189209	
-0.0177002	
-0.0183105	
-0.0204468	
-0.0244141	
-0.0271606	
-0.0265503	
-0.0241089	
-0.0213623	
-0.0198364	
-0.0192261	
-0.0210571	
-0.0274658	
-0.0366211	
-0.0408936	
-0.0393677	
-0.0350952	
-0.0335693	
-0.03479	
-0.0338745	
-0.0308228	
-0.0305176	
-0.0323486	
-0.0357056	
-0.0375366	
-0.0378418	
-0.0375366	
-0.0357056	
-0.0332642	
-0.0305176	
-0.0296021	
-0.0305176	
-0.0332642	
-0.0344849	
-0.0323486	
-0.0286865	
-0.0256348	
-0.0256348	
-0.027771	
-0.0308228	
-0.0314331	
-0.0320435	
-0.0326538	
-0.0350952	
-0.0366211	
-0.0363159	
-0.0350952	
-0.032959	
-0.0296021	
-0.0274658	
-0.027771	
-0.0317383	
-0.0357056	
-0.0378418	
-0.0366211	
-0.0338745	
-0.0302124	
-0.0280762	
-0.0286865	
-0.0302124	
-0.0332642	
-0.0357056	
-0.0372314	
-0.0378418	
-0.0372314	
-0.0357056	
-0.0335693	
-0.0314331	
-0.0305176	
-0.0302124	
-0.0299072	
-0.0289917	
-0.0274658	
-0.0268555	
-0.0265503	
-0.0265503	
-0.027771	
-0.0292969	
-0.0296021	
-0.0283813	
-0.0256348	
-0.0234985	
-0.0228882	
-0.0238037	
-0.0259399	
-0.0271606	
-0.0274658	
-0.0262451	
-0.0250244	
-0.0244141	
-0.0241089	
-0.0244141	
-0.0247192	
-0.0250244	
-0.0244141	
-0.0241089	
-0.0247192	
-0.0250244	
-0.0250244	
-0.0250244	
-0.0253296	
-0.0262451	
-0.0271606	
-0.0286865	
-0.0296021	
-0.0299072	
-0.0280762	
-0.0262451	
-0.0241089	
-0.0250244	
-0.0283813	
-0.0311279	
-0.0314331	
-0.0286865	
-0.0259399	
-0.0250244	
-0.0268555	
-0.0289917	
-0.0292969	
-0.0274658	
-0.0256348	
-0.0250244	
-0.0262451	
-0.0259399	
-0.0271606	
-0.0280762	
-0.0302124	
-0.0314331	
-0.0305176	
-0.0286865	
-0.0271606	
-0.0283813	
-0.0314331	
-0.03479	
-0.03479	
-0.0332642	
-0.0311279	
-0.0296021	
-0.0286865	
-0.0283813	
-0.0274658	
-0.0259399	
-0.0244141	
-0.0244141	
-0.0259399	
-0.0265503	
-0.0250244	
-0.0234985	
-0.0244141	
-0.0250244	
-0.0241089	
-0.0210571	
-0.020752	
-0.0234985	
-0.0280762	
-0.0317383	
-0.0332642	
-0.0338745	
-0.0338745	
-0.0341797	
-0.03479	
-0.0338745	
-0.0320435	
-0.0308228	
-0.0317383	
-0.0320435	
-0.0326538	
-0.0308228	
-0.0302124	
-0.0311279	
-0.032959	
-0.0357056	
-0.0363159	
-0.03479	
-0.0332642	
-0.0317383	
-0.0311279	
-0.0302124	
-0.0299072	
-0.0299072	
-0.0296021	
-0.0289917	
-0.0286865	
-0.0289917	
-0.0280762	
-0.0271606	
-0.0262451	
-0.0256348	
-0.0247192	
-0.0231934	
-0.022583	
-0.0222778	
-0.0219727	
-0.0219727	
-0.0216675	
-0.0210571	
-0.0192261	
-0.017395	
-0.0170898	
-0.0186157	
-0.0192261	
-0.0180054	
-0.017395	
-0.0180054	
-0.0198364	
-0.0180054	
-0.0143433	
-0.0119019	
-0.0137329	
-0.0183105	
-0.0222778	
-0.022583	
-0.0210571	
-0.0186157	
-0.0167847	
-0.0183105	
-0.0201416	
-0.0198364	
-0.015564	
-0.0115967	
-0.0125122	
-0.0170898	
-0.0201416	
-0.0189209	
-0.0167847	
-0.0152588	
-0.0164795	
-0.0189209	
-0.0231934	
-0.0265503	
-0.0286865	
-0.0274658	
-0.0234985	
-0.0198364	
-0.0192261	
-0.0216675	
-0.0241089	
-0.0244141	
-0.0231934	
-0.0228882	
-0.0241089	
-0.0247192	
-0.0234985	
-0.0210571	
-0.0198364	
-0.0216675	
-0.0238037	
-0.0262451	
-0.027771	
-0.0274658	
-0.0265503	
-0.0253296	
-0.0253296	
-0.0274658	
-0.0289917	
-0.0296021	
-0.027771	
-0.0259399	
-0.0253296	
-0.0250244	
-0.0250244	
-0.0250244	
-0.0265503	
-0.0271606	
-0.0259399	
-0.0228882	
-0.0204468	
-0.0201416	
-0.0210571	
-0.0216675	
-0.0219727	
-0.022583	
-0.0247192	
-0.0265503	
-0.0265503	
-0.0253296	
-0.0244141	
-0.0247192	
-0.0259399	
-0.0268555	
-0.0265503	
-0.0259399	
-0.0262451	
-0.0262451	
-0.0262451	
-0.0253296	
-0.0238037	
-0.0231934	
-0.0241089	
-0.0262451	
-0.0283813	
-0.0292969	
-0.0280762	
-0.0262451	
-0.0244141	
-0.0244141	
-0.0234985	
-0.0204468	
-0.0170898	
-0.0170898	
-0.0213623	
-0.0256348	
-0.0256348	
-0.0213623	
-0.0164795	
-0.0140381	
-0.015564	
-0.0192261	
-0.022583	
-0.022583	
-0.0198364	
-0.017395	
-0.0164795	
-0.0183105	
-0.020752	
-0.0222778	
-0.0222778	
-0.0213623	
-0.0195313	
-0.0180054	
-0.0170898	
-0.0170898	
-0.017395	
-0.0195313	
-0.0231934	
-0.0274658	
-0.0296021	
-0.0283813	
-0.0259399	
-0.0234985	
-0.022583	
-0.0241089	
-0.0265503	
-0.0274658	
-0.0271606	
-0.0238037	
-0.020752	
-0.0183105	
-0.0180054	
-0.0192261	
-0.0204468	
-0.0213623	
-0.0222778	
-0.0213623	
-0.0204468	
-0.0192261	
-0.0186157	
-0.0186157	
-0.0177002	
-0.017395	
-0.0183105	
-0.0195313	
-0.020752	
-0.022583	
-0.0244141	
-0.0265503	
-0.027771	
-0.027771	
-0.027771	
-0.0265503	
-0.0253296	
-0.022583	
-0.0192261	
-0.0177002	
-0.0186157	
-0.022583	
-0.0253296	
-0.0262451	
-0.0244141	
-0.022583	
-0.0201416	
-0.0183105	
-0.0177002	
-0.0183105	
-0.0192261	
-0.0195313	
-0.0186157	
-0.0177002	
-0.017395	
-0.017395	
-0.0177002	
-0.0167847	
-0.0158691	
-0.015564	
-0.015564	
-0.0152588	
-0.0149536	
-0.015564	
-0.0164795	
-0.017395	
-0.0167847	
-0.0152588	
-0.0131226	
-0.010376	
-0.0100708	
-0.0119019	
-0.0149536	
-0.0158691	
-0.0146484	
-0.0131226	
-0.0128174	
-0.0134277	
-0.0143433	
-0.0161743	
-0.0195313	
-0.0216675	
-0.0216675	
-0.0204468	
-0.0195313	
-0.020752	
-0.0231934	
-0.0244141	
-0.0250244	
-0.0238037	
-0.0222778	
-0.022583	
-0.0216675	
-0.0201416	
-0.0170898	
-0.0134277	
-0.0119019	
-0.0115967	
-0.0131226	
-0.0146484	
-0.0158691	
-0.0164795	
-0.017395	
-0.017395	
-0.0183105	
-0.0198364	
-0.0210571	
-0.0213623	
-0.0189209	
-0.0158691	
-0.0158691	
-0.0256348	
-0.0448608	
-0.0708008	
-0.0985718	
-0.127258	
-0.159302	
-0.194092	
-0.229797	
-0.266418	
-0.302429	
-0.337524	
-0.370789	
-0.401611	
-0.431824	
-0.464783	
-0.496826	
-0.524597	
-0.541992	
-0.551758	
-0.560913	
-0.571899	
-0.583801	
-0.593262	
-0.598145	
-0.597839	
-0.59082	
-0.586853	
-0.586548	
-0.589294	
-0.587158	
-0.580139	
-0.57373	
-0.57312	
-0.574646	
-0.57373	
-0.569763	
-0.565186	
-0.562439	
-0.559998	
-0.558167	
-0.557556	
-0.558472	
-0.558472	
-0.557251	
-0.554199	
-0.550537	
-0.548096	
-0.54657	
-0.545959	
-0.545959	
-0.545349	
-0.545044	
-0.543213	
-0.540466	
-0.53894	
-0.537415	
-0.536804	
-0.537415	
-0.536804	
-0.535889	
-0.533142	
-0.531006	
-0.531006	
-0.531311	
-0.530701	
-0.53009	
-0.528564	
-0.52887	
-0.533142	
-0.525208	
-0.496216	
-0.447388	
-0.393982	
-0.348511	
-0.307617	
-0.261536	
-0.211792	
-0.160522	
-0.111084	
-0.0646973	
-0.0231934	
0.0128174	
0.0439453	
0.0714111	
0.09552	
0.112305	
0.117798	
0.114136	
0.107422	
0.102844	
0.101929	
0.102234	
0.101624	
0.100708	
0.101013	
0.101013	
0.0997925	
0.0958252	
0.0915527	
0.0891113	
0.0888062	
0.0891113	
0.0881958	
0.0863647	
0.0839233	
0.0814819	
0.0796509	
0.0796509	
0.0811768	
0.0830078	
0.083313	
0.0823975	
0.0820923	
0.0820923	
0.0830078	
0.0848389	
0.0869751	
0.0878906	
0.0878906	
0.0863647	
0.0866699	
0.0872803	
0.0881958	
0.0881958	
0.0872803	
0.0863647	
0.0872803	
0.088501	
0.088501	
0.0863647	
0.0842285	
0.0827026	
0.0827026	
0.0823975	
0.0802612	
0.078125	
0.0787354	
0.0802612	
0.0796509	
0.0735474	
0.0686646	
0.0689697	
0.0732422	
0.0756836	
0.0747681	
0.0741577	
0.0753784	
0.0775146	
0.0769043	
0.0747681	
0.0732422	
0.0744629	
0.0756836	
0.0759888	
0.0738525	
0.0717163	
0.0701904	
0.0701904	
0.071106	
0.0714111	
0.0714111	
0.0701904	
0.0704956	
0.0720215	
0.0747681	
0.0756836	
0.0741577	
0.0708008	
0.0671387	
0.0671387	
0.0701904	
0.0738525	
0.0726318	
0.0683594	
0.062561	
0.0595093	
0.0582886	
0.0579834	
0.0576782	
0.0598145	
0.0631714	
0.0671387	
0.0698853	
0.0701904	
0.0683594	
0.065918	
0.0640869	
0.0631714	
0.0640869	
0.0650024	
0.0668335	
0.067749	
0.0689697	
0.0689697	
0.0683594	
0.0671387	
0.0662231	
0.067749	
0.0698853	
0.0708008	
0.0695801	
0.0674438	
0.0671387	
0.0683594	
0.0692749	
0.0698853	
0.0689697	
0.0686646	
0.0680542	
0.0680542	
0.0683594	
0.0680542	
0.0671387	
0.0656128	
0.0640869	
0.0634766	
0.0622559	
0.0628662	
0.0637817	
0.0646973	
0.0643921	
0.0628662	
0.0619507	
0.0619507	
0.062561	
0.0631714	
0.0613403	
0.0588989	
0.0588989	
0.0610352	
0.0646973	
0.0674438	
0.0701904	
0.0704956	
0.0674438	
0.0631714	
0.0622559	
0.0640869	
0.0662231	
0.0656128	
0.0631714	
0.0616455	
0.0601196	
0.0588989	
0.0582886	
0.0579834	
0.0570679	
0.0552368	
0.0543213	
0.0558472	
0.0601196	
0.0646973	
0.0668335	
0.0671387	
0.0650024	
0.0634766	
0.0622559	
0.0622559	
0.0631714	
0.0643921	
0.0653076	
0.0643921	
0.0613403	
0.0592041	
0.0598145	
0.062561	
0.062561	
0.0613403	
0.0598145	
0.0601196	
0.0598145	
0.0595093	
0.0585938	
0.0567627	
0.0570679	
0.0585938	
0.0610352	
0.0622559	
0.0604248	
0.0582886	
0.0570679	
0.0570679	
0.0576782	
0.0570679	
0.055542	
0.0546265	
0.0546265	
0.0546265	
0.0546265	
0.0540161	
0.0540161	
0.057373	
0.0616455	
0.0646973	
0.0637817	
0.0610352	
0.0588989	
0.0576782	
0.0570679	
0.0567627	
0.0564575	
0.0561523	
0.0543213	
0.0521851	
0.0506592	
0.0494385	
0.0479126	
0.0457764	
0.0457764	
0.0479126	
0.0506592	
0.0512695	
0.0506592	
0.0494385	
0.0476074	
0.0466919	
0.0448608	
0.0442505	
0.043335	
0.0430298	
0.0442505	
0.045166	
0.0454712	
0.0436401	
0.0415039	
0.039978	
0.0396729	
0.0396729	
0.0390625	
0.0396729	
0.0415039	
0.0442505	
0.045166	
0.0448608	
0.0448608	
0.0457764	
0.0473022	
0.0476074	
0.0454712	
0.0430298	
0.0424194	
0.0445557	
0.0482178	
0.050354	
0.0491333	
0.0466919	
0.0445557	
0.043335	
0.0439453	
0.0448608	
0.0442505	
0.0411987	
0.038147	
0.0372314	
0.0405884	
0.043335	
0.0427246	
0.0396729	
0.0360107	
0.0338745	
0.0341797	
0.0350952	
0.0369263	
0.0375366	
0.0375366	
0.0390625	
0.0405884	
0.0418091	
0.0408936	
0.0378418	
0.03479	
0.0323486	
0.0308228	
0.0314331	
0.0326538	
0.0335693	
0.0332642	
0.0326538	
0.0332642	
0.0350952	
0.0360107	
0.03479	
0.0341797	
0.0344849	
0.0341797	
0.0317383	
0.0271606	
0.0247192	
0.0259399	
0.0296021	
0.0317383	
0.0323486	
0.0314331	
0.0299072	
0.0280762	
0.0268555	
0.0265503	
0.0274658	
0.0289917	
0.0308228	
0.0314331	
0.0302124	
0.0280762	
0.027771	
0.0283813	
0.0286865	
0.0268555	
0.0244141	
0.0219727	
0.0204468	
0.0201416	
0.0216675	
0.0250244	
0.0283813	
0.0296021	
0.0283813	
0.0262451	
0.0244141	
0.0247192	
0.0268555	
0.0296021	
0.0314331	
0.0317383	
0.0302124	
0.0283813	
0.0274658	
0.027771	
0.0289917	
0.0299072	
0.0302124	
0.0292969	
0.0259399	
0.022583	
0.0195313	
0.0183105	
0.0192261	
0.0210571	
0.0231934	
0.0259399	
0.0268555	
0.0268555	
0.0265503	
0.0265503	
0.0262451	
0.0244141	
0.0219727	
0.0195313	
0.0186157	
0.0189209	
0.0192261	
0.0189209	
0.0183105	
0.0186157	
0.0189209	
0.0198364	
0.0201416	
0.0198364	
0.0186157	
0.0164795	
0.0152588	
0.015564	
0.0170898	
0.0198364	
0.0222778	
0.0247192	
0.0265503	
0.0271606	
0.0262451	
0.0253296	
0.0265503	
0.0286865	
0.0292969	
0.0286865	
0.0271606	
0.0256348	
0.0231934	
0.0222778	
0.0234985	
0.0265503	
0.027771	
0.0268555	
0.0262451	
0.0259399	
0.0256348	
0.0256348	
0.0256348	
0.0274658	
0.0302124	
0.0323486	
0.0320435	
0.0299072	
0.0286865	
0.0283813	
0.0286865	
0.0283813	
0.0271606	
0.0262451	
0.0250244	
0.0247192	
0.0241089	
0.0234985	
0.0231934	
0.0228882	
0.0247192	
0.0253296	
0.0241089	
0.0213623	
0.0189209	
0.0183105	
0.0180054	
0.0189209	
0.0198364	
0.020752	
0.0201416	
0.0177002	
0.0152588	
0.0146484	
0.0152588	
0.0164795	
0.0167847	
0.017395	
0.0177002	
0.0180054	
0.0170898	
0.0164795	
0.0167847	
0.0164795	
0.015564	
0.0149536	
0.0149536	
0.0158691	
0.0161743	
0.0167847	
0.0183105	
0.0189209	
0.0186157	
0.0167847	
0.0161743	
0.015564	
0.0134277	
0.0100708	
0.00762939	
0.00732422	
0.00854492	
0.012207	
0.0161743	
0.0189209	
0.0186157	
0.0161743	
0.0158691	
0.0158691	
0.0152588	
0.0140381	
0.0137329	
0.0149536	
0.0161743	
0.017395	
0.0177002	
0.0167847	
0.0152588	
0.0140381	
0.0143433	
0.0167847	
0.0195313	
0.0213623	
0.0210571	
0.017395	
0.012207	
0.00823975	
0.00793457	
0.0100708	
0.0119019	
0.010376	
0.0100708	
0.0112915	
0.0143433	
0.015564	
0.0146484	
0.0131226	
0.0128174	
0.0143433	
0.0177002	
0.0204468	
0.022583	
0.0238037	
0.0250244	
0.0247192	
0.0222778	
0.020752	
0.0201416	
0.0222778	
0.0234985	
0.0231934	
0.0213623	
0.0180054	
0.0152588	
0.0137329	
0.0131226	
0.0128174	
0.0131226	
0.0140381	
0.0161743	
0.0186157	
0.0213623	
0.0253296	
0.0274658	
0.0274658	
0.0259399	
0.0250244	
0.0247192	
0.0234985	
0.020752	
0.0180054	
0.0180054	
0.0216675	
0.0250244	
0.0274658	
0.0271606	
0.0265503	
0.0250244	
0.0222778	
0.0186157	
0.0164795	
0.0164795	
0.0192261	
0.0216675	
0.0219727	
0.0210571	
0.0192261	
0.0186157	
0.0189209	
0.0186157	
0.017395	
0.0152588	
0.0137329	
0.0149536	
0.0164795	
0.0167847	
0.0146484	
0.0128174	
0.0134277	
0.0161743	
0.0192261	
0.0195313	
0.0198364	
0.0192261	
0.0183105	
0.0161743	
0.0134277	
0.0115967	
0.0119019	
0.012207	
0.0137329	
0.0170898	
0.020752	
0.022583	
0.022583	
0.020752	
0.0186157	
0.017395	
0.017395	
0.0198364	
0.0222778	
0.0228882	
0.0192261	
0.0152588	
0.0128174	
0.0140381	
0.017395	
0.0201416	
0.0213623	
0.0213623	
0.0186157	
0.0149536	
0.0119019	
0.0109863	
0.0128174	
0.0146484	
0.0161743	
0.0167847	
0.0164795	
0.0140381	
0.010376	
0.0088501	
0.0106812	
0.0143433	
0.0158691	
0.0146484	
0.0119019	
0.0100708	
0.00915527	
0.00976563	
0.012207	
0.0143433	
0.0149536	
0.0131226	
0.0106812	
0.00946045	
0.0106812	
0.0131226	
0.0152588	
0.0158691	
0.015564	
0.0149536	
0.0140381	
0.0137329	
0.0137329	
0.0149536	
0.0152588	
0.0152588	
0.0143433	
0.0140381	
0.0143433	
0.0143433	
0.0143433	
0.0137329	
0.0140381	
0.0137329	
0.0128174	
0.0112915	
0.0100708	
0.0100708	
0.010376	
0.0106812	
0.0088501	
0.00762939	
0.00701904	
0.00732422	
0.00762939	
0.00854492	
0.0119019	
0.0161743	
0.0189209	
0.0195313	
0.0183105	
0.0167847	
0.0146484	
0.0146484	
0.0152588	
0.0158691	
0.0152588	
0.0149536	
0.0158691	
0.0183105	
0.0201416	
0.0198364	
0.0183105	
0.0164795	
0.0164795	
0.0189209	
0.020752	
0.0213623	
0.020752	
0.0201416	
0.0183105	
0.0158691	
0.0140381	
0.0149536	
0.0164795	
0.0183105	
0.0192261	
0.0177002	
0.015564	
0.0134277	
0.0146484	
0.0186157	
0.0198364	
0.0186157	
0.0164795	
0.0167847	
0.0189209	
0.0189209	
0.0164795	
0.0140381	
0.0131226	
0.0131226	
0.0131226	
0.0143433	
0.0143433	
0.0143433	
0.0131226	
0.0125122	
0.012207	
0.0119019	
0.0115967	
0.0109863	
0.010376	
0.0115967	
0.0112915	
0.00915527	
0.00518799	
0.00213623	
0.00335693	
0.00671387	
0.00946045	
0.0106812	
0.0106812	
0.0112915	
0.0149536	
0.0210571	
0.0259399	
0.0268555	
0.0234985	
0.0186157	
0.0158691	
0.0158691	
0.0177002	
0.0195313	
0.0201416	
0.0195313	
0.0189209	
0.0183105	
0.0170898	
0.0167847	
0.0167847	
0.017395	
0.0161743	
0.0152588	
0.0149536	
0.0161743	
0.0167847	
0.0167847	
0.0170898	
0.0158691	
0.012207	
0.0088501	
0.00671387	
0.00671387	
0.00762939	
0.00946045	
0.0115967	
0.0134277	
0.012207	
0.0109863	
0.00976563	
0.0100708	
0.0112915	
0.0128174	
0.0128174	
0.0125122	
0.0112915	
0.010376	
0.0109863	
0.0128174	
0.015564	
0.0161743	
0.0170898	
0.0161743	
0.0161743	
0.0180054	
0.0201416	
0.022583	
0.0231934	
0.0234985	
0.0222778	
0.0219727	
0.022583	
0.0244141	
0.0253296	
0.0244141	
0.022583	
0.020752	
0.0195313	
0.0201416	
0.0222778	
0.0241089	
0.0238037	
0.0219727	
0.0210571	
0.0216675	
0.0201416	
0.0167847	
0.012207	
0.010376	
0.0119019	
0.0152588	
0.0186157	
0.0210571	
0.022583	
0.0222778	
0.0198364	
0.0170898	
0.0161743	
0.017395	
0.0195313	
0.0201416	
0.0219727	
0.0238037	
0.0250244	
0.0244141	
0.0228882	
0.0213623	
0.0195313	
0.015564	
0.0112915	
0.00976563	
0.0112915	
0.0146484	
0.015564	
0.0131226	
0.0100708	
0.010376	
0.0119019	
0.012207	
0.0125122	
0.0134277	
0.0167847	
0.0186157	
0.0167847	
0.0143433	
0.0128174	
0.012207	
0.0119019	
0.012207	
0.0140381	
0.0177002	
0.0198364	
0.0183105	
0.0140381	
0.0115967	
0.012207	
0.0140381	
0.0152588	
0.0143433	
0.0131226	
0.0131226	
0.0134277	
0.0140381	
0.0140381	
0.0134277	
0.012207	
0.0140381	
0.0283813	
0.0546265	
0.090332	
0.125122	
0.15686	
0.188904	
0.222778	
0.259399	
0.297241	
0.334778	
0.370178	
0.404663	
0.437622	
0.46814	
0.494995	
0.519104	
0.541992	
0.562134	
0.58075	
0.594482	
0.601501	
0.602112	
0.598145	
0.594482	
0.592957	
0.592957	
0.593567	
0.595398	
0.596008	
0.593567	
0.5896	
0.586548	
0.584717	
0.584717	
0.584106	
0.582886	
0.581055	
0.578613	
0.575867	
0.574341	
0.574036	
0.57373	
0.572205	
0.569763	
0.567932	
0.567322	
0.567627	
0.566406	
0.568542	
0.574646	
0.582275	
0.586548	
0.582886	
0.576782	
0.570984	
0.568542	
0.568542	
0.569763	
0.570984	
0.571899	
0.570984	
0.570374	
0.569763	
0.570068	
0.569458	
0.567322	
0.564575	
0.562134	
0.561523	
0.559082	
0.547791	
0.52063	
0.481262	
0.436401	
0.393677	
0.350647	
0.304565	
0.254822	
0.203247	
0.152893	
0.104065	
0.057373	
0.0134277	
-0.0289917	
-0.0662231	
-0.0964355	
-0.117188	
-0.125732	
-0.126038	
-0.122375	
-0.119934	
-0.121155	
-0.123596	
-0.126038	
-0.127258	
-0.127869	
-0.127563	
-0.126343	
-0.124207	
-0.121765	
-0.119324	
-0.119324	
-0.121765	
-0.126038	
-0.129089	
-0.1297	
-0.128174	
-0.126953	
-0.127258	
-0.119324	
-0.098877	
-0.0695801	
-0.0460815	
-0.0378418	
-0.0411987	
-0.0479126	
-0.0512695	
-0.0515747	
-0.0500488	
-0.0485229	
-0.0485229	
-0.0476074	
-0.0469971	
-0.0460815	
-0.0460815	
-0.0448608	
-0.0439453	
-0.045166	
-0.0473022	
-0.0485229	
-0.0469971	
-0.0457764	
-0.0463867	
-0.0494385	
-0.0524902	
-0.0534058	
-0.0521851	
-0.0500488	
-0.0482178	
-0.0476074	
-0.0485229	
-0.0494385	
-0.0491333	
-0.0482178	
-0.0479126	
-0.0494385	
-0.0512695	
-0.0512695	
-0.0509644	
-0.050354	
-0.0506592	
-0.0500488	
-0.0488281	
-0.0476074	
-0.0485229	
-0.050354	
-0.0521851	
-0.0515747	
-0.0494385	
-0.0482178	
-0.0494385	
-0.0518799	
-0.0540161	
-0.0534058	
-0.0518799	
-0.0509644	
-0.0500488	
-0.0500488	
-0.050354	
-0.0527954	
-0.0561523	
-0.0570679	
-0.0564575	
-0.0567627	
-0.0592041	
-0.0613403	
-0.0610352	
-0.0588989	
-0.0582886	
-0.0595093	
-0.0619507	
-0.0628662	
-0.0619507	
-0.0592041	
-0.0558472	
-0.0534058	
-0.0537109	
-0.0558472	
-0.0582886	
-0.0588989	
-0.057373	
-0.0543213	
-0.0527954	
-0.0527954	
-0.0540161	
-0.0537109	
-0.0524902	
-0.0524902	
-0.0540161	
-0.055542	
-0.0564575	
-0.0564575	
-0.0552368	
-0.0546265	
-0.0540161	
-0.0549316	
-0.0561523	
-0.0558472	
-0.0543213	
-0.0537109	
-0.0540161	
-0.0546265	
-0.0546265	
-0.0546265	
-0.055542	
-0.0576782	
-0.0585938	
-0.0576782	
-0.0543213	
-0.0506592	
-0.0482178	
-0.0485229	
-0.0506592	
-0.0521851	
-0.0524902	
-0.0518799	
-0.0521851	
-0.0527954	
-0.0524902	
-0.0527954	
-0.0531006	
-0.0534058	
-0.0537109	
-0.0543213	
-0.0561523	
-0.057373	
-0.0561523	
-0.0558472	
-0.055542	
-0.0564575	
-0.0564575	
-0.055542	
-0.0546265	
-0.0543213	
-0.0546265	
-0.0537109	
-0.0527954	
-0.0518799	
-0.0512695	
-0.0509644	
-0.0506592	
-0.0524902	
-0.055542	
-0.0567627	
-0.0558472	
-0.0534058	
-0.0524902	
-0.0534058	
-0.0543213	
-0.0543213	
-0.0527954	
-0.0512695	
-0.0512695	
-0.0543213	
-0.0543213	
-0.0494385	
-0.0411987	
-0.0357056	
-0.0363159	
-0.0402832	
-0.0418091	
-0.0424194	
-0.0421143	
-0.0424194	
-0.0436401	
-0.045166	
-0.0466919	
-0.0488281	
-0.050354	
-0.0500488	
-0.0488281	
-0.0473022	
-0.0460815	
-0.045166	
-0.0442505	
-0.0445557	
-0.0454712	
-0.0466919	
-0.0466919	
-0.0460815	
-0.0454712	
-0.0463867	
-0.0488281	
-0.0509644	
-0.0527954	
-0.0534058	
-0.0521851	
-0.0509644	
-0.0491333	
-0.0491333	
-0.0491333	
-0.0497437	
-0.0497437	
-0.0491333	
-0.0482178	
-0.0476074	
-0.0469971	
-0.0466919	
-0.0469971	
-0.0469971	
-0.0463867	
-0.0448608	
-0.0445557	
-0.0457764	
-0.0473022	
-0.0476074	
-0.0476074	
-0.0485229	
-0.0512695	
-0.0524902	
-0.0506592	
-0.0473022	
-0.0454712	
-0.0466919	
-0.0485229	
-0.050354	
-0.0509644	
-0.0518799	
-0.0518799	
-0.0509644	
-0.0497437	
-0.0482178	
-0.0463867	
-0.0445557	
-0.0427246	
-0.0430298	
-0.0436401	
-0.043335	
-0.0415039	
-0.0396729	
-0.0393677	
-0.039978	
-0.0402832	
-0.0393677	
-0.0387573	
-0.0393677	
-0.0408936	
-0.0402832	
-0.038147	
-0.0360107	
-0.0354004	
-0.0357056	
-0.0357056	
-0.0341797	
-0.0326538	
-0.0320435	
-0.0320435	
-0.0335693	
-0.0344849	
-0.0335693	
-0.0317383	
-0.0296021	
-0.0299072	
-0.0317383	
-0.0350952	
-0.0363159	
-0.0372314	
-0.0387573	
-0.0430298	
-0.0463867	
-0.0457764	
-0.0430298	
-0.0408936	
-0.0427246	
-0.0454712	
-0.0473022	
-0.0479126	
-0.0482178	
-0.0485229	
-0.0479126	
-0.0469971	
-0.0460815	
-0.0457764	
-0.0460815	
-0.0466919	
-0.0466919	
-0.0463867	
-0.0457764	
-0.0454712	
-0.0454712	
-0.0442505	
-0.0427246	
-0.0408936	
-0.0402832	
-0.0418091	
-0.043335	
-0.0445557	
-0.0442505	
-0.043335	
-0.0430298	
-0.0442505	
-0.0454712	
-0.0454712	
-0.0442505	
-0.0436401	
-0.0436401	
-0.0430298	
-0.0418091	
-0.0415039	
-0.0421143	
-0.0436401	
-0.0439453	
-0.0436401	
-0.0430298	
-0.0424194	
-0.0424194	
-0.0418091	
-0.0415039	
-0.0415039	
-0.0408936	
-0.0405884	
-0.0411987	
-0.0418091	
-0.0424194	
-0.0418091	
-0.0402832	
-0.0405884	
-0.0411987	
-0.0418091	
-0.0415039	
-0.0396729	
-0.0375366	
-0.0354004	
-0.0332642	
-0.0335693	
-0.0354004	
-0.0372314	
-0.0384521	
-0.0387573	
-0.039978	
-0.0405884	
-0.0387573	
-0.0344849	
-0.0363159	
-0.0500488	
-0.0753784	
-0.105286	
-0.136108	
-0.168762	
-0.205383	
-0.245056	
-0.284729	
-0.325623	
-0.367737	
-0.405579	
-0.438538	
-0.464478	
-0.488586	
-0.513306	
-0.535278	
-0.553894	
-0.566406	
-0.574341	
-0.578613	
-0.581665	
-0.579529	
-0.577698	
-0.575256	
-0.575867	
-0.579224	
-0.582581	
-0.584717	
-0.583801	
-0.580444	
-0.577393	
-0.577393	
-0.578918	
-0.578613	
-0.575562	
-0.571594	
-0.568237	
-0.567322	
-0.568542	
-0.571899	
-0.574951	
-0.574951	
-0.575562	
-0.578918	
-0.585022	
-0.59082	
-0.594177	
-0.595703	
-0.595093	
-0.592346	
-0.59021	
-0.59021	
-0.591431	
-0.592041	
-0.590515	
-0.588684	
-0.586243	
-0.585327	
-0.585327	
-0.585327	
-0.584717	
-0.584106	
-0.583191	
-0.583191	
-0.583191	
-0.582886	
-0.581665	
-0.579834	
-0.581055	
-0.572205	
-0.542908	
-0.493164	
-0.437317	
-0.390015	
-0.3479	
-0.303345	
-0.253906	
-0.203247	
-0.154724	
-0.111084	
-0.0720215	
-0.0378418	
-0.00823975	
0.0131226	
0.0222778	
0.020752	
0.015564	
0.0128174	
0.0134277	
0.015564	
0.0161743	
0.0161743	
0.0164795	
0.0164795	
0.0161743	
0.0161743	
0.0164795	
0.0164795	
0.0158691	
0.0134277	
0.0119019	
0.0128174	
0.0143433	
0.0152588	
0.0137329	
0.0125122	
0.0125122	
0.0131226	
0.0134277	
0.0152588	
0.0183105	
0.020752	
0.0219727	
0.0222778	
0.022583	
0.022583	
0.022583	
0.0228882	
0.022583	
0.0222778	
0.0213623	
0.0213623	
0.0204468	
0.0216675	
0.0302124	
0.0427246	
0.0515747	
0.0500488	
0.0427246	
0.0369263	
0.0360107	
0.0372314	
0.0393677	
0.0408936	
0.0411987	
0.0393677	
0.038147	
0.0372314	
0.038147	
0.0390625	
0.0405884	
0.0427246	
0.045166	
0.0466919	
0.0473022	
0.0473022	
0.0476074	
0.0479126	
0.0469971	
0.0457764	
0.0442505	
0.0436401	
0.0436401	
0.0430298	
0.0421143	
0.0418091	
0.0411987	
0.0427246	
0.0442505	
0.045166	
0.0448608	
0.0430298	
0.0421143	
0.0415039	
0.0411987	
0.0424194	
0.0445557	
0.0469971	
0.0479126	
0.0476074	
0.0463867	
0.0448608	
0.0436401	
0.043335	
0.0442505	
0.045166	
0.0445557	
0.043335	
0.0421143	
0.0408936	
0.0411987	
0.0421143	
0.0436401	
0.0439453	
0.0448608	
0.0448608	
0.0460815	
0.0469971	
0.0473022	
0.0466919	
0.0448608	
0.0427246	
0.0411987	
0.0411987	
0.0411987	
0.0408936	
0.0402832	
0.038147	
0.0360107	
0.0350952	
0.0366211	
0.0393677	
0.0402832	
0.0387573	
0.0366211	
0.0369263	
0.038147	
0.0393677	
0.0387573	
0.0375366	
0.0360107	
0.0341797	
0.0326538	
0.0332642	
0.0354004	
0.0384521	
0.0396729	
0.0393677	
0.0378418	
0.0369263	
0.0372314	
0.038147	
0.038147	
0.0372314	
0.0357056	
0.0341797	
0.0344849	
0.0363159	
0.0384521	
0.0405884	
0.0405884	
0.0405884	
0.0411987	
0.0418091	
0.0415039	
0.0402832	
0.0390625	
0.0390625	
0.0402832	
0.0415039	
0.0424194	
0.043335	
0.0442505	
0.0448608	
0.0448608	
0.0436401	
0.0418091	
0.039978	
0.038147	
0.0375366	
0.0357056	
0.0332642	
0.0317383	
0.0320435	
0.0338745	
0.0354004	
0.0360107	
0.0357056	
0.0369263	
0.0384521	
0.0390625	
0.0384521	
0.0369263	
0.0369263	
0.0384521	
0.0402832	
0.039978	
0.0384521	
0.0378418	
0.0390625	
0.0396729	
0.0384521	
0.0372314	
0.0378418	
0.039978	
0.0408936	
0.0402832	
0.0405884	
0.0418091	
0.0430298	
0.0439453	
0.0436401	
0.0427246	
0.0418091	
0.0396729	
0.038147	
0.0375366	
0.0366211	
0.0354004	
0.0341797	
0.0341797	
0.0360107	
0.0369263	
0.0369263	
0.0350952	
0.0332642	
0.0308228	
0.0305176	
0.0320435	
0.0341797	
0.0350952	
0.0326538	
0.0299072	
0.0265503	
0.0259399	
0.0262451	
0.027771	
0.0289917	
0.0305176	
0.0320435	
0.0341797	
0.0357056	
0.0354004	
0.0338745	
0.0317383	
0.0299072	
0.0286865	
0.0286865	
0.0289917	
0.0292969	
0.0289917	
0.0289917	
0.0283813	
0.0280762	
0.0262451	
0.0241089	
0.022583	
0.020752	
0.0201416	
0.0213623	
0.0231934	
0.0250244	
0.0253296	
0.0241089	
0.0231934	
0.0228882	
0.0244141	
0.0262451	
0.0280762	
0.0296021	
0.0296021	
0.0283813	
0.0259399	
0.0238037	
0.0228882	
0.0219727	
0.020752	
0.0210571	
0.022583	
0.0250244	
0.027771	
0.0292969	
0.0292969	
0.0280762	
0.0262451	
0.0247192	
0.0244141	
0.0241089	
0.0241089	
0.0241089	
0.0241089	
0.0231934	
0.022583	
0.0216675	
0.020752	
0.020752	
0.022583	
0.0241089	
0.0231934	
0.0219727	
0.020752	
0.0213623	
0.0216675	
0.0219727	
0.0222778	
0.0231934	
0.0234985	
0.0228882	
0.0219727	
0.0222778	
0.0241089	
0.0259399	
0.0262451	
0.0238037	
0.0216675	
0.0222778	
0.0259399	
0.0292969	
0.0305176	
0.0299072	
0.0286865	
0.0280762	
0.0265503	
0.0259399	
0.0259399	
0.0265503	
0.0271606	
0.0268555	
0.0256348	
0.0241089	
0.022583	
0.020752	
0.0195313	
0.020752	
0.0238037	
0.0268555	
0.0280762	
0.0283813	
0.0280762	
0.0283813	
0.0286865	
0.0280762	
0.027771	
0.027771	
0.0274658	
0.027771	
0.0265503	
0.0244141	
0.0228882	
0.0216675	
0.022583	
0.0241089	
0.0253296	
0.0256348	
0.0241089	
0.0219727	
0.0213623	
0.0213623	
0.0231934	
0.0244141	
0.0253296	
0.0250244	
0.0244141	
0.0244141	
0.0253296	
0.0262451	
0.0256348	
0.0244141	
0.0222778	
0.0210571	
0.0204468	
0.0213623	
0.0228882	
0.0231934	
0.022583	
0.0198364	
0.0177002	
0.0183105	
0.0195313	
0.0213623	
0.0213623	
0.0213623	
0.0219727	
0.0219727	
0.020752	
0.0186157	
0.0167847	
0.015564	
0.0170898	
0.0192261	
0.022583	
0.0250244	
0.0256348	
0.0241089	
0.0219727	
0.0213623	
0.022583	
0.0247192	
0.0250244	
0.0222778	
0.0213623	
0.0320435	
0.0579834	
0.0952148	
0.134277	
0.171509	
0.20813	
0.246887	
0.286255	
0.324402	
0.361633	
0.396423	
0.431213	
0.465393	
0.498352	
0.527954	
0.554199	
0.577087	
0.594177	
0.606384	
0.612488	
0.61615	
0.618286	
0.617371	
0.614014	
0.610352	
0.609131	
0.610657	
0.613098	
0.613708	
0.610962	
0.608826	
0.606995	
0.6073	
0.606384	
0.604248	
0.602417	
0.600586	
0.600281	
0.59845	
0.597534	
0.596313	
0.595398	
0.593872	
0.591736	
0.590515	
0.59082	
0.591431	
0.592346	
0.595398	
0.598145	
0.600281	
0.59906	
0.596619	
0.593567	
0.592041	
0.591431	
0.592041	
0.592041	
0.591736	
0.592651	
0.593567	
0.593262	
0.591431	
0.589905	
0.586548	
0.570984	
0.540161	
0.496826	
0.450745	
0.404968	
0.356445	
0.305786	
0.253906	
0.201416	
0.149841	
0.100708	
0.0592041	
0.0271606	
0.00366211	
-0.0112915	
-0.0170898	
-0.0167847	
-0.0146484	
-0.0143433	
-0.017395	
-0.0198364	
-0.0213623	
-0.0228882	
-0.0234985	
-0.0234985	
-0.0222778	
-0.0210571	
-0.0216675	
-0.0228882	
-0.0238037	
-0.0234985	
-0.0231934	
-0.0238037	
-0.0256348	
-0.0274658	
-0.0286865	
-0.0286865	
-0.0283813	
-0.0283813	
-0.0283813	
-0.0280762	
-0.0286865	
-0.0305176	
-0.0323486	
-0.032959	
-0.0332642	
-0.032959	
-0.0332642	
-0.0344849	
-0.0360107	
-0.0369263	
-0.0372314	
-0.0366211	
-0.0366211	
-0.0366211	
-0.0366211	
-0.0363159	
-0.0372314	
-0.0384521	
-0.0402832	
-0.043335	
-0.0479126	
-0.0506592	
-0.0488281	
-0.0439453	
-0.0415039	
-0.043335	
-0.0469971	
-0.0497437	
-0.050354	
-0.0497437	
-0.0485229	
-0.0476074	
-0.0485229	
-0.0497437	
-0.050354	
-0.0488281	
-0.0482178	
-0.0476074	
-0.0479126	
-0.0473022	
-0.0469971	
-0.0479126	
-0.0494385	
-0.0494385	
-0.0479126	
-0.0460815	
-0.0448608	
-0.0445557	
-0.0454712	
-0.0457764	
-0.0457764	
-0.0460815	
-0.0460815	
-0.0457764	
-0.0448608	
-0.0439453	
-0.0439453	
-0.0442505	
-0.0448608	
-0.0448608	
-0.045166	
-0.0460815	
-0.0482178	
-0.0509644	
-0.0524902	
-0.0534058	
-0.0537109	
-0.0534058	
-0.0527954	
-0.0512695	
-0.050354	
-0.0491333	
-0.0476074	
-0.0454712	
-0.0424194	
-0.0405884	
-0.0415039	
-0.0436401	
-0.0448608	
-0.045166	
-0.0445557	
-0.0454712	
-0.0460815	
-0.0457764	
-0.0454712	
-0.0448608	
-0.0448608	
-0.0454712	
-0.0466919	
-0.0466919	
-0.0463867	
-0.0457764	
-0.045166	
-0.0448608	
-0.0442505	
-0.0442505	
-0.045166	
-0.0454712	
-0.0476074	
-0.0488281	
-0.0488281	
-0.0469971	
-0.0463867	
-0.0473022	
-0.0494385	
-0.0500488	
-0.0485229	
-0.0466919	
-0.0457764	
-0.0466919	
-0.0482178	
-0.0488281	
-0.0494385	
-0.0509644	
-0.0534058	
-0.055542	
-0.0558472	
-0.0558472	
-0.0543213	
-0.0531006	
-0.0531006	
-0.0540161	
-0.0543213	
-0.0527954	
-0.0506592	
-0.0506592	
-0.0521851	
-0.0531006	
-0.0521851	
-0.0497437	
-0.0469971	
-0.0460815	
-0.0466919	
-0.0488281	
-0.0512695	
-0.0527954	
-0.0515747	
-0.050354	
-0.0497437	
-0.050354	
-0.0509644	
-0.0512695	
-0.0497437	
-0.0485229	
-0.0463867	
-0.045166	
-0.0448608	
-0.0460815	
-0.0479126	
-0.0479126	
-0.0457764	
-0.0427246	
-0.0421143	
-0.0439453	
-0.0473022	
-0.0485229	
-0.0466919	
-0.0439453	
-0.0424194	
-0.0436401	
-0.0460815	
-0.0473022	
-0.0488281	
-0.050354	
-0.0512695	
-0.0494385	
-0.0463867	
-0.0445557	
-0.0445557	
-0.0466919	
-0.0485229	
-0.0500488	
-0.0491333	
-0.0473022	
-0.0460815	
-0.0469971	
-0.0485229	
-0.0500488	
-0.0512695	
-0.0518799	
-0.0521851	
-0.0512695	
-0.050354	
-0.0497437	
-0.0497437	
-0.0485229	
-0.0463867	
-0.0430298	
-0.0405884	
-0.0396729	
-0.0408936	
-0.0430298	
-0.0439453	
-0.0442505	
-0.0436401	
-0.043335	
-0.0442505	
-0.0454712	
-0.0457764	
-0.045166	
-0.0436401	
-0.0439453	
-0.0448608	
-0.045166	
-0.0460815	
-0.0473022	
-0.0494385	
-0.0512695	
-0.0518799	
-0.0509644	
-0.0500488	
-0.0488281	
-0.0479126	
-0.0469971	
-0.0469971	
-0.0469971	
-0.0463867	
-0.0460815	
-0.0463867	
-0.0476074	
-0.0482178	
-0.0482178	
-0.0473022	
-0.0473022	
-0.0469971	
-0.0457764	
-0.0439453	
-0.0427246	
-0.0427246	
-0.0436401	
-0.0430298	
-0.0418091	
-0.0415039	
-0.0424194	
-0.0445557	
-0.0460815	
-0.0466919	
-0.0473022	
-0.0482178	
-0.0494385	
-0.0509644	
-0.0524902	
-0.0537109	
-0.0546265	
-0.0543213	
-0.0540161	
-0.0527954	
-0.0518799	
-0.0515747	
-0.0527954	
-0.0552368	
-0.0576782	
-0.0585938	
-0.0564575	
-0.0524902	
-0.0500488	
-0.0524902	
-0.0576782	
-0.0601196	
-0.0579834	
-0.0534058	
-0.050354	
-0.0512695	
-0.0537109	
-0.0564575	
-0.0576782	
-0.0588989	
-0.0598145	
-0.06073	
-0.0604248	
-0.0601196	
-0.0595093	
-0.0592041	
-0.0601196	
-0.0601196	
-0.0592041	
-0.0579834	
-0.0570679	
-0.0570679	
-0.057373	
-0.057373	
-0.0576782	
-0.0576782	
-0.0552368	
-0.0515747	
-0.0531006	
-0.0668335	
-0.0930786	
-0.126648	
-0.161133	
-0.195618	
-0.230408	
-0.266113	
-0.300598	
-0.335083	
-0.370483	
-0.406189	
-0.440674	
-0.472412	
-0.500793	
-0.527039	
-0.550842	
-0.570679	
-0.585632	
-0.600281	
-0.61554	
-0.629578	
-0.637817	
-0.639343	
-0.636597	
-0.632324	
-0.628052	
-0.625	
-0.623779	
-0.623779	
-0.625305	
-0.62561	
-0.625	
-0.624695	
-0.62561	
-0.62561	
-0.62439	
-0.621338	
-0.618591	
-0.617981	
-0.617676	
-0.617981	
-0.617981	
-0.617371	
-0.616455	
-0.61615	
-0.615845	
-0.615845	
-0.614624	
-0.613403	
-0.612488	
-0.612183	
-0.612183	
-0.611877	
-0.611572	
-0.610962	
-0.610046	
-0.610046	
-0.610657	
-0.610352	
-0.609131	
-0.606995	
-0.605164	
-0.603638	
-0.602112	
-0.600891	
-0.599976	
-0.600281	
-0.601501	
-0.586548	
-0.552368	
-0.505371	
-0.461121	
-0.426331	
-0.392456	
-0.353699	
-0.311279	
-0.266418	
-0.220032	
-0.175171	
-0.133972	
-0.0979614	
-0.0662231	
-0.0405884	
-0.0250244	
-0.0189209	
-0.0204468	
-0.0238037	
-0.0241089	
-0.0228882	
-0.0216675	
-0.0216675	
-0.022583	
-0.0238037	
-0.0253296	
-0.0271606	
-0.0286865	
-0.0302124	
-0.0308228	
-0.0311279	
-0.0308228	
-0.0296021	
-0.0292969	
-0.0289917	
-0.0289917	
-0.0280762	
-0.0274658	
-0.027771	
-0.0274658	
-0.0189209	
-0.0012207	
0.0177002	
0.0262451	
0.0238037	
0.0195313	
0.0195313	
0.0222778	
0.0234985	
0.0241089	
0.0241089	
0.0238037	
0.0234985	
0.0228882	
0.0231934	
0.0231934	
0.0238037	
0.0228882	
0.0210571	
0.0186157	
0.0161743	
0.0146484	
0.0146484	
0.0149536	
0.0149536	
0.0143433	
0.0143433	
0.0146484	
0.0146484	
0.0125122	
0.00946045	
0.00579834	
0.00427246	
0.00518799	
0.00823975	
0.0115967	
0.0146484	
0.0149536	
0.0146484	
0.0131226	
0.0109863	
0.00946045	
0.00854492	
0.00823975	
0.00793457	
0.00854492	
0.010376	
0.0140381	
0.0170898	
0.017395	
0.0146484	
0.0112915	
0.00976563	
0.00915527	
0.00946045	
0.0088501	
0.00854492	
0.00854492	
0.00946045	
0.0119019	
0.0146484	
0.0161743	
0.015564	
0.0131226	
0.0119019	
0.012207	
0.0137329	
0.0146484	
0.015564	
0.0164795	
0.0167847	
0.0146484	
0.0109863	
0.00854492	
0.00823975	
0.0088501	
0.0088501	
0.00793457	
0.00762939	
0.00793457	
0.0088501	
0.00854492	
0.00762939	
0.00762939	
0.00854492	
0.00976563	
0.010376	
0.0100708	
0.00976563	
0.00915527	
0.0088501	
0.0088501	
0.00976563	
0.00946045	
0.00854492	
0.00732422	
0.00732422	
0.00701904	
0.00640869	
0.00518799	
0.00518799	
0.00579834	
0.00640869	
0.00701904	
0.00854492	
0.00976563	
0.010376	
0.010376	
0.0100708	
0.0100708	
0.010376	
0.010376	
0.010376	
0.00915527	
0.00762939	
0.00762939	
0.00701904	
0.00549316	
0.00335693	
0.00183105	
0.0012207	
0.0012207	
0.00244141	
0.00335693	
0.00244141	
0.000610352	
-0.000610352	
0.000305176	
0.00244141	
0.00396729	
0.00488281	
0.00579834	
0.00610352	
0.00610352	
0.00488281	
0.00457764	
0.00518799	
0.00762939	
0.00976563	
0.0100708	
0.00854492	
0.00518799	
0.00305176	
0.00244141	
0.00244141	
0.00305176	
0.00366211	
0.00518799	
0.00579834	
0.00579834	
0.00457764	
0.00366211	
0.00305176	
0.00274658	
0.00366211	
0.00457764	
0.00488281	
0.00579834	
0.00549316	
0.00518799	
0.00366211	
0.00244141	
0.00213623	
0.00244141	
0.00213623	
0.00213623	
0.00183105	
0.000610352	
0	
-0.000610352	
-0.000305176	
0.000610352	
0.000915527	
0.0012207	
0.00183105	
0.00213623	
0.00274658	
0.00213623	
0.00213623	
0.00183105	
0.00305176	
0.00457764	
0.00549316	
0.00457764	
0.00244141	
0.00152588	
0.00274658	
0.00457764	
0.00549316	
0.00366211	
0.00152588	
0.000610352	
0.00213623	
0.00518799	
0.00793457	
0.0088501	
0.00762939	
0.00610352	
0.00396729	
0.00244141	
0.0012207	
0.00183105	
0.00335693	
0.00335693	
0.00213623	
0.000915527	
0	
-0.000305176	
-0.000305176	
-0.000915527	
-0.0012207	
-0.000915527	
0.000305176	
0.00152588	
0.00152588	
0	
-0.00244141	
-0.00366211	
-0.00335693	
-0.00305176	
-0.00305176	
-0.00305176	
-0.00366211	
-0.00366211	
-0.00396729	
-0.00335693	
-0.00244141	
-0.0012207	
0	
0.000305176	
-0.000610352	
-0.00213623	
-0.00366211	
-0.00396729	
-0.00457764	
-0.00488281	
-0.00549316	
-0.00549316	
-0.00518799	
-0.00488281	
-0.00579834	
-0.00640869	
-0.00671387	
-0.00671387	
-0.00732422	
-0.00915527	
-0.010376	
-0.0106812	
-0.010376	
-0.0100708	
-0.00915527	
-0.00854492	
-0.00762939	
-0.00671387	
-0.00732422	
-0.0100708	
-0.0137329	
-0.0158691	
-0.015564	
-0.0146484	
-0.0143433	
-0.0143433	
-0.0137329	
-0.0125122	
-0.0115967	
-0.0106812	
-0.0100708	
-0.00976563	
-0.0112915	
-0.0131226	
-0.0140381	
-0.0134277	
-0.0112915	
-0.00915527	
-0.00823975	
-0.00823975	
-0.00701904	
-0.00610352	
-0.00579834	
-0.00793457	
-0.010376	
-0.0100708	
-0.00701904	
-0.00396729	
-0.00427246	
-0.00732422	
-0.010376	
-0.0100708	
-0.00854492	
-0.00671387	
-0.00549316	
-0.00457764	
-0.00457764	
-0.00640869	
-0.00854492	
-0.00915527	
-0.0088501	
-0.00823975	
-0.00732422	
-0.00671387	
-0.00579834	
-0.00488281	
-0.00518799	
-0.00488281	
-0.00366211	
-0.00305176	
-0.00274658	
-0.00457764	
-0.00640869	
-0.00732422	
-0.00762939	
-0.00671387	
-0.00518799	
-0.00366211	
-0.00274658	
-0.00335693	
-0.00549316	
-0.00823975	
-0.010376	
-0.0109863	
-0.00976563	
-0.00823975	
-0.00701904	
-0.00579834	
-0.00579834	
-0.00823975	
-0.0128174	
-0.017395	
-0.0189209	
-0.0167847	
-0.012207	
-0.00854492	
-0.00671387	
-0.00518799	
-0.00366211	
-0.00244141	
-0.00305176	
-0.00396729	
-0.00457764	
-0.00396729	
-0.00396729	
-0.00488281	
-0.00579834	
-0.00579834	
-0.00488281	
-0.00396729	
-0.00396729	
-0.00518799	
-0.00640869	
-0.00732422	
-0.00762939	
-0.00823975	
-0.00946045	
-0.010376	
-0.00976563	
-0.00671387	
-0.00549316	
-0.00732422	
-0.010376	
-0.0119019	
-0.0109863	
-0.00946045	
-0.00854492	
-0.00701904	
-0.00518799	
-0.00396729	
-0.00366211	
-0.00396729	
-0.00488281	
-0.00579834	
-0.00762939	
-0.00976563	
-0.0112915	
-0.0125122	
-0.0134277	
-0.0140381	
-0.0131226	
-0.0115967	
-0.010376	
-0.00946045	
-0.00946045	
-0.00946045	
-0.0088501	
-0.00762939	
-0.00610352	
-0.00549316	
-0.00671387	
-0.00854492	
-0.00976563	
-0.00946045	
-0.00823975	
-0.00762939	
-0.00823975	
-0.00976563	
-0.0100708	
-0.0088501	
-0.00732422	
-0.00732422	
-0.0088501	
-0.010376	
-0.0119019	
-0.0128174	
-0.0128174	
-0.012207	
-0.012207	
-0.0125122	
-0.0134277	
-0.0134277	
-0.0140381	
-0.0146484	
-0.0140381	
-0.012207	
-0.0109863	
-0.0119019	
-0.0134277	
-0.0128174	
-0.0112915	
-0.010376	
-0.0106812	
-0.0115967	
-0.012207	
-0.0134277	
-0.0146484	
-0.0152588	
-0.0146484	
-0.0128174	
-0.0112915	
-0.0109863	
-0.0119019	
-0.0119019	
-0.012207	
-0.0125122	
-0.0134277	
-0.0140381	
-0.0137329	
-0.012207	
-0.0112915	
-0.0109863	
-0.0106812	
-0.0109863	
-0.0109863	
-0.0112915	
-0.0112915	
-0.0109863	
-0.010376	
-0.0100708	
-0.00976563	
-0.0100708	
-0.010376	
-0.0100708	
-0.00946045	
-0.0088501	
-0.0088501	
-0.0106812	
-0.0128174	
-0.0140381	
-0.0125122	
-0.00976563	
-0.00762939	
-0.00640869	
-0.00732422	
-0.0088501	
-0.0112915	
-0.0100708	
0.00183105	
0.0265503	
0.0592041	
0.0921631	
0.122986	
0.155334	
0.19104	
0.226135	
0.260315	
0.294495	
0.330505	
0.367737	
0.401306	
0.429993	
0.457458	
0.485535	
0.516663	
0.545044	
0.567017	
0.58197	
0.59082	
0.592957	
0.588989	
0.581665	
0.577393	
0.578003	
0.58197	
0.585632	
0.586243	
0.585022	
0.582581	
0.580444	
0.578308	
0.578003	
0.579529	
0.58136	
0.58197	
0.579529	
0.576172	
0.573425	
0.572815	
0.574036	
0.575867	
0.576477	
0.576172	
0.57373	
0.571594	
0.573425	
0.579834	
0.585938	
0.587769	
0.584412	
0.58075	
0.578918	
0.579224	
0.579834	
0.579529	
0.578308	
0.576477	
0.575867	
0.575867	
0.574646	
0.574036	
0.57312	
0.57373	
0.574036	
0.572205	
0.569763	
0.567322	
0.565796	
0.56488	
0.563049	
0.561218	
0.560608	
0.560608	
0.560303	
0.560608	
0.560303	
0.561218	
0.56366	
0.56488	
0.557861	
0.535278	
0.498962	
0.454712	
0.409241	
0.363159	
0.316162	
0.267639	
0.217896	
0.166931	
0.118408	
0.0775146	
0.0445557	
0.017395	
-0.00274658	
-0.0137329	
-0.0167847	
-0.0167847	
-0.0183105	
-0.0219727	
-0.0247192	
-0.0268555	
-0.0274658	
-0.0265503	
-0.0253296	
-0.0250244	
-0.0262451	
-0.0283813	
-0.0296021	
-0.0308228	
-0.0311279	
-0.0311279	
-0.0314331	
-0.0308228	
-0.0305176	
-0.0296021	
-0.0292969	
-0.0308228	
-0.0366211	
-0.0463867	
-0.0579834	
-0.0656128	
-0.0674438	
-0.0646973	
-0.0610352	
-0.0598145	
-0.06073	
-0.062561	
-0.062561	
-0.0619507	
-0.0604248	
-0.0588989	
-0.0582886	
-0.0588989	
-0.0613403	
-0.0634766	
-0.0634766	
-0.0628662	
-0.0613403	
-0.0595093	
-0.0582886	
-0.057373	
-0.0576782	
-0.057373	
-0.0579834	
-0.0582886	
-0.0576782	
-0.0564575	
-0.055542	
-0.0582886	
-0.0622559	
-0.0662231	
-0.0671387	
-0.0656128	
-0.0634766	
-0.0610352	
-0.0598145	
-0.0601196	
-0.0622559	
-0.0634766	
-0.0631714	
-0.0619507	
-0.06073	
-0.0610352	
-0.0616455	
-0.0616455	
-0.06073	
-0.06073	
-0.06073	
-0.0595093	
-0.0582886	
-0.057373	
-0.0576782	
-0.0595093	
-0.06073	
-0.0610352	
-0.0595093	
-0.0576782	
-0.0561523	
-0.0543213	
-0.0524902	
-0.0518799	
-0.0515747	
-0.0521851	
-0.0524902	
-0.0531006	
-0.0540161	
-0.0543213	
-0.0531006	
-0.0518799	
-0.0500488	
-0.0488281	
-0.0488281	
-0.0494385	
-0.0485229	
-0.0466919	
-0.0448608	
-0.0439453	
-0.0436401	
-0.0436401	
-0.0445557	
-0.0454712	
-0.0445557	
-0.0411987	
-0.0396729	
-0.0408936	
-0.0424194	
-0.0427246	
-0.0418091	
-0.0405884	
-0.0402832	
-0.039978	
-0.0396729	
-0.039978	
-0.0390625	
-0.0375366	
-0.0369263	
-0.0372314	
-0.0390625	
-0.0402832	
-0.0411987	
-0.0408936	
-0.0396729	
-0.0387573	
-0.0378418	
-0.0387573	
-0.0396729	
-0.0415039	
-0.0424194	
-0.0418091	
-0.0402832	
-0.0387573	
-0.0384521	
-0.0384521	
-0.0384521	
-0.0384521	
-0.0384521	
-0.0378418	
-0.0363159	
-0.0350952	
-0.0344849	
-0.0350952	
-0.0354004	
-0.0360107	
-0.0360107	
-0.0354004	
-0.0344849	
-0.0344849	
-0.0360107	
-0.0372314	
-0.0378418	
-0.0369263	
-0.0363159	
-0.0360107	
-0.0354004	
-0.0350952	
-0.0354004	
-0.0354004	
-0.0344849	
-0.0320435	
-0.0302124	
-0.0289917	
-0.0299072	
-0.0314331	
-0.0317383	
-0.0308228	
-0.0292969	
-0.0299072	
-0.0332642	
-0.0344849	
-0.0323486	
-0.0283813	
-0.0262451	
-0.027771	
-0.0308228	
-0.0326538	
-0.0335693	
-0.0320435	
-0.0286865	
-0.0256348	
-0.0250244	
-0.0271606	
-0.0308228	
-0.032959	
-0.0323486	
-0.0314331	
-0.0305176	
-0.0302124	
-0.0292969	
-0.0265503	
-0.0253296	
-0.0253296	
-0.0265503	
-0.0271606	
-0.0268555	
-0.0271606	
-0.0289917	
-0.0308228	
-0.0323486	
-0.0326538	
-0.0320435	
-0.0311279	
-0.0305176	
-0.0302124	
-0.0308228	
-0.0311279	
-0.0305176	
-0.0283813	
-0.0265503	
-0.0259399	
-0.0265503	
-0.0259399	
-0.0247192	
-0.0234985	
-0.0241089	
-0.0253296	
-0.027771	
-0.0296021	
-0.0308228	
-0.0305176	
-0.0280762	
-0.0262451	
-0.0253296	
-0.0250244	
-0.0256348	
-0.0262451	
-0.027771	
-0.0283813	
-0.027771	
-0.0253296	
-0.0231934	
-0.0228882	
-0.0241089	
-0.0259399	
-0.0259399	
-0.0238037	
-0.0210571	
-0.0189209	
-0.0183105	
-0.0192261	
-0.0198364	
-0.0189209	
-0.0164795	
-0.0146484	
-0.0149536	
-0.0167847	
-0.0183105	
-0.0177002	
-0.0177002	
-0.0177002	
-0.0189209	
-0.0189209	
-0.0180054	
-0.0177002	
-0.0186157	
-0.0204468	
-0.0210571	
-0.0210571	
-0.020752	
-0.020752	
-0.020752	
-0.0198364	
-0.0180054	
-0.0167847	
-0.0167847	
-0.0180054	
-0.0201416	
-0.0204468	
-0.0192261	
-0.0167847	
-0.0143433	
-0.0128174	
-0.0125122	
-0.0131226	
-0.0137329	
-0.0143433	
-0.0140381	
-0.0186157	
-0.0323486	
-0.055542	
-0.0863647	
-0.119629	
-0.153809	
-0.188904	
-0.22522	
-0.262451	
-0.301819	
-0.339966	
-0.376587	
-0.411682	
-0.444946	
-0.474548	
-0.499268	
-0.519409	
-0.535889	
-0.549927	
-0.560608	
-0.567627	
-0.569763	
-0.567627	
-0.565796	
-0.565796	
-0.568237	
-0.569763	
-0.569153	
-0.567627	
-0.565491	
-0.56427	
-0.56427	
-0.565491	
-0.565796	
-0.564575	
-0.563049	
-0.562744	
-0.563049	
-0.561829	
-0.559387	
-0.557556	
-0.557251	
-0.55603	
-0.553894	
-0.55542	
-0.559998	
-0.568542	
-0.575562	
-0.579529	
-0.580444	
-0.578308	
-0.574341	
-0.570984	
-0.569458	
-0.568542	
-0.567322	
-0.565491	
-0.56427	
-0.56366	
-0.56366	
-0.563354	
-0.56366	
-0.563965	
-0.563965	
-0.563354	
-0.562439	
-0.560303	
-0.557861	
-0.55542	
-0.554199	
-0.553894	
-0.552979	
-0.552063	
-0.554199	
-0.548401	
-0.525208	
-0.482483	
-0.432129	
-0.389099	
-0.350952	
-0.309143	
-0.261841	
-0.212097	
-0.16449	
-0.121155	
-0.0808716	
-0.043335	
-0.00946045	
0.0204468	
0.0396729	
0.0476074	
0.0457764	
0.0421143	
0.0424194	
0.0463867	
0.0497437	
0.0512695	
0.0512695	
0.0509644	
0.0497437	
0.0473022	
0.0460815	
0.045166	
0.0436401	
0.0411987	
0.0393677	
0.0390625	
0.0402832	
0.0411987	
0.0424194	
0.0424194	
0.0421143	
0.0411987	
0.0405884	
0.0405884	
0.0408936	
0.0430298	
0.0448608	
0.0460815	
0.0448608	
0.0421143	
0.0439453	
0.0509644	
0.0582886	
0.0598145	
0.0564575	
0.0524902	
0.0524902	
0.0549316	
0.0558472	
0.0549316	
0.0531006	
0.0515747	
0.0524902	
0.0537109	
0.0543213	
0.0524902	
0.0509644	
0.0509644	
0.0512695	
0.0509644	
0.050354	
0.050354	
0.050354	
0.0512695	
0.0518799	
0.0524902	
0.0521851	
0.0512695	
0.0506592	
0.0506592	
0.0509644	
0.0506592	
0.0494385	
0.0479126	
0.0469971	
0.0469971	
0.0473022	
0.0476074	
0.0488281	
0.0494385	
0.0494385	
0.0482178	
0.0479126	
0.0488281	
0.0497437	
0.0491333	
0.0482178	
0.0479126	
0.0473022	
0.0473022	
0.0473022	
0.0476074	
0.0476074	
0.0473022	
0.0476074	
0.0494385	
0.0512695	
0.0518799	
0.0509644	
0.0491333	
0.0476074	
0.0469971	
0.0463867	
0.0466919	
0.0473022	
0.0482178	
0.0497437	
0.0506592	
0.0506592	
0.0512695	
0.050354	
0.0485229	
0.0466919	
0.0457764	
0.0463867	
0.0479126	
0.0497437	
0.0515747	
0.0531006	
0.0531006	
0.0527954	
0.0509644	
0.0491333	
0.0476074	
0.0479126	
0.0497437	
0.0509644	
0.050354	
0.0491333	
0.0488281	
0.0494385	
0.0509644	
0.050354	
0.0509644	
0.0534058	
0.0570679	
0.0592041	
0.0585938	
0.057373	
0.0576782	
0.0576782	
0.0579834	
0.0585938	
0.0598145	
0.0604248	
0.0595093	
0.0576782	
0.0567627	
0.0564575	
0.0570679	
0.057373	
0.0567627	
0.057373	
0.0588989	
0.0613403	
0.0634766	
0.0640869	
0.062561	
0.0598145	
0.0570679	
0.0561523	
0.057373	
0.0595093	
0.0604248	
0.0592041	
0.0567627	
0.0543213	
0.0531006	
0.0527954	
0.0518799	
0.050354	
0.0497437	
0.0515747	
0.0537109	
0.0552368	
0.0549316	
0.0537109	
0.0531006	
0.0527954	
0.0537109	
0.0546265	
0.0549316	
0.0534058	
0.0497437	
0.0463867	
0.0442505	
0.0442505	
0.045166	
0.0460815	
0.0463867	
0.0463867	
0.0469971	
0.0479126	
0.0479126	
0.0482178	
0.0485229	
0.0485229	
0.0479126	
0.0469971	
0.0469971	
0.0463867	
0.0457764	
0.045166	
0.0445557	
0.0445557	
0.0442505	
0.0442505	
0.0454712	
0.0469971	
0.0479126	
0.0479126	
0.0466919	
0.0457764	
0.0460815	
0.0473022	
0.0485229	
0.0482178	
0.0479126	
0.0479126	
0.0485229	
0.0494385	
0.0509644	
0.0527954	
0.0546265	
0.0552368	
0.0552368	
0.0537109	
0.0509644	
0.0479126	
0.0457764	
0.0457764	
0.0463867	
0.0466919	
0.0460815	
0.0457764	
0.0457764	
0.0469971	
0.0482178	
0.0485229	
0.0473022	
0.0460815	
0.0469971	
0.0485229	
0.0494385	
0.0491333	
0.0491333	
0.0497437	
0.0515747	
0.0534058	
0.0527954	
0.0500488	
0.0466919	
0.045166	
0.0457764	
0.0469971	
0.0476074	
0.0485229	
0.0500488	
0.0509644	
0.0506592	
0.0500488	
0.0491333	
0.0488281	
0.0482178	
0.0476074	
0.0469971	
0.0466919	
0.0473022	
0.0476074	
0.0460815	
0.0436401	
0.0427246	
0.0439453	
0.0460815	
0.0469971	
0.0454712	
0.0445557	
0.043335	
0.0436401	
0.043335	
0.0430298	
0.0430298	
0.0436401	
0.0442505	
0.0439453	
0.043335	
0.0421143	
0.0411987	
0.0415039	
0.0424194	
0.0430298	
0.0436401	
0.0439453	
0.0445557	
0.0442505	
0.0430298	
0.0418091	
0.0415039	
0.0411987	
0.0402832	
0.0375366	
0.03479	
0.032959	
0.0335693	
0.0357056	
0.0378418	
0.0387573	
0.0427246	
0.0482178	
0.0527954	
0.0518799	
0.0466919	
0.043335	
0.0421143	
0.0421143	
0.0427246	
0.0436401	
0.0442505	
0.0445557	
0.0436401	
0.0436401	
0.0445557	
0.0463867	
0.0485229	
0.050354	
0.0512695	
0.0518799	
0.0515747	
0.0509644	
0.050354	
0.0488281	
0.0463867	
0.0436401	
0.0418091	
0.0418091	
0.0427246	
0.0436401	
0.0430298	
0.0415039	
0.0393677	
0.0384521	
0.0384521	
0.0384521	
0.038147	
0.038147	
0.0387573	
0.0384521	
0.0357056	
0.0326538	
0.0305176	
0.0302124	
0.0302124	
0.0308228	
0.0308228	
0.0308228	
0.0311279	
0.0320435	
0.0332642	
0.03479	
0.0360107	
0.0369263	
0.0375366	
0.0378418	
0.038147	
0.0390625	
0.0390625	
0.0393677	
0.0393677	
0.0390625	
0.038147	
0.0372314	
0.0360107	
0.0350952	
0.0341797	
0.0335693	
0.0335693	
0.0341797	
0.0332642	
0.0326538	
0.0308228	
0.0299072	
0.0296021	
0.0299072	
0.0308228	
0.0314331	
0.0323486	
0.0323486	
0.0314331	
0.0296021	
0.0283813	
0.0268555	
0.0265503	
0.03479	
0.0564575	
0.090332	
0.127258	
0.161438	
0.194092	
0.228882	
0.265503	
0.300903	
0.333557	
0.36377	
0.395508	
0.429382	
0.463867	
0.494385	
0.519104	
0.542297	
0.563965	
0.584412	
0.602417	
0.618896	
0.63446	
0.643921	
0.646057	
0.640564	
0.63385	
0.630188	
0.630798	
0.632629	
0.632935	
0.632019	
0.629883	
0.629272	
0.628967	
0.629272	
0.629272	
0.627747	
0.626526	
0.625	
0.624695	
0.624695	
0.626526	
0.626831	
0.62561	
0.622864	
0.620728	
0.619812	
0.618591	
0.617065	
0.61554	
0.615845	
0.617065	
0.619202	
0.620422	
0.620117	
0.618591	
0.61554	
0.612183	
0.608826	
0.606689	
0.606995	
0.60791	
0.607605	
0.605774	
0.603027	
0.601501	
0.601501	
0.601501	
0.600586	
0.598145	
0.595703	
0.595093	
0.595093	
0.595703	
0.597229	
0.597839	
0.5896	
0.56427	
0.525208	
0.479126	
0.435181	
0.390625	
0.342712	
0.294495	
0.247498	
0.202026	
0.156555	
0.11261	
0.0759888	
0.0466919	
0.022583	
0.00335693	
-0.00671387	
-0.00793457	
-0.00457764	
-0.00396729	
-0.00762939	
-0.0112915	
-0.0125122	
-0.012207	
-0.0128174	
-0.0146484	
-0.0158691	
-0.0158691	
-0.0146484	
-0.0140381	
-0.0137329	
-0.0140381	
-0.0146484	
-0.0149536	
-0.0137329	
-0.0119019	
-0.010376	
-0.0100708	
-0.0115967	
-0.0134277	
-0.0146484	
-0.0146484	
-0.0177002	
-0.0244141	
-0.0360107	
-0.0457764	
-0.0485229	
-0.0469971	
-0.0439453	
-0.0445557	
-0.0463867	
-0.0469971	
-0.0448608	
-0.0415039	
-0.0393677	
-0.0390625	
-0.0390625	
-0.0384521	
-0.0378418	
-0.0378418	
-0.0402832	
-0.0424194	
-0.0448608	
-0.0454712	
-0.0463867	
-0.0466919	
-0.0466919	
-0.0457764	
-0.0457764	
-0.0460815	
-0.0463867	
-0.0460815	
-0.045166	
-0.0427246	
-0.0396729	
-0.038147	
-0.0384521	
-0.039978	
-0.0405884	
-0.039978	
-0.0393677	
-0.0390625	
-0.0387573	
-0.0384521	
-0.0390625	
-0.039978	
-0.0418091	
-0.0436401	
-0.0448608	
-0.0460815	
-0.0460815	
-0.0463867	
-0.0460815	
-0.0463867	
-0.0482178	
-0.050354	
-0.0515747	
-0.0515747	
-0.0494385	
-0.0460815	
-0.043335	
-0.0427246	
-0.0436401	
-0.0445557	
-0.0436401	
-0.0430298	
-0.043335	
-0.043335	
-0.0430298	
-0.0418091	
-0.0411987	
-0.0411987	
-0.0408936	
-0.0408936	
-0.0418091	
-0.0436401	
-0.045166	
-0.0448608	
-0.045166	
-0.0460815	
-0.0479126	
-0.0482178	
-0.0469971	
-0.045166	
-0.0445557	
-0.0454712	
-0.0457764	
-0.0460815	
-0.0460815	
-0.0463867	
-0.0454712	
-0.0439453	
-0.0430298	
-0.0430298	
-0.0442505	
-0.0463867	
-0.0479126	
-0.0479126	
-0.0457764	
-0.0439453	
-0.0445557	
-0.0457764	
-0.0448608	
-0.0421143	
-0.0396729	
-0.039978	
-0.0411987	
-0.0424194	
-0.0421143	
-0.0424194	
-0.0427246	
-0.043335	
-0.0448608	
-0.0445557	
-0.0442505	
-0.0430298	
-0.0418091	
-0.0427246	
-0.045166	
-0.0476074	
-0.0500488	
-0.0509644	
-0.0512695	
-0.0512695	
-0.0518799	
-0.050354	
-0.0485229	
-0.0466919	
-0.0463867	
-0.0466919	
-0.0466919	
-0.0460815	
-0.0454712	
-0.0457764	
-0.045166	
-0.0442505	
-0.0442505	
-0.0442505	
-0.0442505	
-0.0436401	
-0.043335	
-0.0430298	
-0.0424194	
-0.0418091	
-0.0402832	
-0.038147	
-0.0354004	
-0.0335693	
-0.0332642	
-0.0341797	
-0.0360107	
-0.0375366	
-0.0390625	
-0.0393677	
-0.038147	
-0.0375366	
-0.0375366	
-0.0378418	
-0.0378418	
-0.0375366	
-0.0372314	
-0.0375366	
-0.0378418	
-0.0378418	
-0.0372314	
-0.0360107	
-0.0357056	
-0.0360107	
-0.0375366	
-0.0387573	
-0.0384521	
-0.0366211	
-0.032959	
-0.0299072	
-0.027771	
-0.0280762	
-0.0292969	
-0.0305176	
-0.0292969	
-0.0262451	
-0.0234985	
-0.0238037	
-0.0268555	
-0.0289917	
-0.0292969	
-0.0296021	
-0.0302124	
-0.0311279	
-0.0305176	
-0.0286865	
-0.027771	
-0.0280762	
-0.0286865	
-0.0299072	
-0.0311279	
-0.0317383	
-0.0308228	
-0.0280762	
-0.0244141	
-0.0210571	
-0.0198364	
-0.020752	
-0.0238037	
-0.0259399	
-0.0271606	
-0.0283813	
-0.0299072	
-0.0302124	
-0.0286865	
-0.0280762	
-0.0296021	
-0.032959	
-0.0350952	
-0.0350952	
-0.0341797	
-0.0338745	
-0.0338745	
-0.0332642	
-0.0320435	
-0.0317383	
-0.0320435	
-0.0332642	
-0.0338745	
-0.0341797	
-0.0338745	
-0.0338745	
-0.0335693	
-0.032959	
-0.0320435	
-0.0326538	
-0.0354004	
-0.0372314	
-0.0378418	
-0.0372314	
-0.0372314	
-0.0363159	
-0.0344849	
-0.0299072	
-0.0289917	
-0.038147	
-0.0601196	
-0.0909424	
-0.123596	
-0.155029	
-0.187988	
-0.223694	
-0.260925	
-0.298462	
-0.335693	
-0.37323	
-0.409851	
-0.444031	
-0.473938	
-0.499268	
-0.521851	
-0.541687	
-0.559692	
-0.576782	
-0.5896	
-0.597534	
-0.599976	
-0.598755	
-0.597229	
-0.596008	
-0.594788	
-0.594788	
-0.593872	
-0.593567	
-0.593872	
-0.595398	
-0.595703	
-0.596313	
-0.595703	
-0.594177	
-0.592957	
-0.591125	
-0.591431	
-0.591125	
-0.59021	
-0.589294	
-0.588379	
-0.588989	
-0.588989	
-0.588379	
-0.587158	
-0.585632	
-0.584412	
-0.583496	
-0.585022	
-0.586853	
-0.589905	
-0.592651	
-0.594788	
-0.595398	
-0.594177	
-0.59082	
-0.588379	
-0.586853	
-0.585327	
-0.584412	
-0.584412	
-0.585632	
-0.587463	
-0.588074	
-0.586548	
-0.584717	
-0.58197	
-0.579529	
-0.577087	
-0.576172	
-0.576782	
-0.577393	
-0.577698	
-0.577393	
-0.576477	
-0.578918	
-0.575562	
-0.554199	
-0.512085	
-0.45929	
-0.412292	
-0.374756	
-0.337219	
-0.294189	
-0.246582	
-0.198669	
-0.152893	
-0.111389	
-0.0738525	
-0.0402832	
-0.0109863	
0.012207	
0.0259399	
0.0305176	
0.0292969	
0.0271606	
0.0259399	
0.0256348	
0.0256348	
0.0265503	
0.0265503	
0.0265503	
0.0259399	
0.0259399	
0.0259399	
0.0250244	
0.0231934	
0.0219727	
0.0219727	
0.0216675	
0.0201416	
0.0189209	
0.0189209	
0.0201416	
0.020752	
0.0216675	
0.0231934	
0.0250244	
0.0259399	
0.0250244	
0.0238037	
0.0222778	
0.0213623	
0.020752	
0.0213623	
0.022583	
0.0238037	
0.0238037	
0.0228882	
0.0210571	
0.0210571	
0.0216675	
0.0216675	
0.0244141	
0.0311279	
0.0396729	
0.0445557	
0.0430298	
0.0402832	
0.0396729	
0.0415039	
0.0424194	
0.0421143	
0.0405884	
0.038147	
0.0350952	
0.0335693	
0.0335693	
0.0341797	
0.03479	
0.0335693	
0.0311279	
0.0283813	
0.0271606	
0.0283813	
0.0305176	
0.0323486	
0.0326538	
0.0326538	
0.0305176	
0.027771	
0.0253296	
0.0247192	
0.0271606	
0.0308228	
0.032959	
0.0320435	
0.0292969	
0.0274658	
0.0274658	
0.0280762	
0.0283813	
0.0289917	
0.0292969	
0.0302124	
0.0299072	
0.027771	
0.0256348	
0.0253296	
0.0271606	
0.0299072	
0.0308228	
0.0308228	
0.0299072	
0.0299072	
0.0299072	
0.0302124	
0.0299072	
0.0292969	
0.027771	
0.0271606	
0.0268555	
0.0271606	
0.0283813	
0.0289917	
0.0302124	
0.0305176	
0.0305176	
0.0299072	
0.0286865	
0.0274658	
0.0268555	
0.0265503	
0.0268555	
0.0265503	
0.0268555	
0.0268555	
0.0268555	
0.0259399	
0.0250244	
0.0244141	
0.0256348	
0.0283813	
0.0311279	
0.0320435	
0.0305176	
0.0280762	
0.0262451	
0.0256348	
0.0256348	
0.0265503	
0.0274658	
0.0283813	
0.027771	
0.0268555	
0.0265503	
0.027771	
0.0283813	
0.027771	
0.0253296	
0.022583	
0.0210571	
0.0210571	
0.0216675	
0.0222778	
0.0219727	
0.0213623	
0.0195313	
0.017395	
0.015564	
0.0158691	
0.0180054	
0.0216675	
0.0256348	
0.027771	
0.0274658	
0.0250244	
0.0228882	
0.0213623	
0.0198364	
0.0186157	
0.0183105	
0.0192261	
0.020752	
0.0216675	
0.0219727	
0.0219727	
0.0219727	
0.022583	
0.0238037	
0.0259399	
0.0280762	
0.0283813	
0.0268555	
0.0247192	
0.0238037	
0.0238037	
0.0247192	
0.0244141	
0.0234985	
0.0228882	
0.0228882	
0.0244141	
0.0256348	
0.0259399	
0.0250244	
0.0234985	
0.0219727	
0.0219727	
0.0222778	
0.022583	
0.0222778	
0.022583	
0.022583	
0.0222778	
0.0213623	
0.0204468	
0.0195313	
0.0198364	
0.020752	
0.0213623	
0.0204468	
0.0192261	
0.0189209	
0.0195313	
0.0198364	
0.0186157	
0.017395	
0.0177002	
0.0186157	
0.0204468	
0.0210571	
0.0222778	
0.0238037	
0.0259399	
0.027771	
0.0292969	
0.0292969	
0.027771	
0.0247192	
0.0222778	
0.0219727	
0.0247192	
0.027771	
0.0296021	
0.0289917	
0.027771	
0.0262451	
0.0259399	
0.0262451	
0.0256348	
0.0241089	
0.0213623	
0.0195313	
0.0204468	
0.0219727	
0.0244141	
0.0253296	
0.0250244	
0.0241089	
0.0216675	
0.0189209	
0.0167847	
0.0152588	
0.0149536	
0.0152588	
0.0152588	
0.0149536	
0.0146484	
0.0161743	
0.017395	
0.0192261	
0.0195313	
0.020752	
0.0231934	
0.0250244	
0.0262451	
0.0256348	
0.0265503	
0.0280762	
0.027771	
0.0256348	
0.0241089	
0.0241089	
0.0244141	
0.0238037	
0.022583	
0.022583	
0.0231934	
0.0238037	
0.0234985	
0.0228882	
0.0222778	
0.022583	
0.0231934	
0.0228882	
0.0222778	
0.0222778	
0.0216675	
0.0219727	
0.0213623	
0.0204468	
0.0204468	
0.0210571	
0.0213623	
0.0216675	
0.0213623	
0.0213623	
0.0219727	
0.0222778	
0.0213623	
0.0198364	
0.0183105	
0.0189209	
0.0204468	
0.0213623	
0.0213623	
0.0213623	
0.0228882	
0.0238037	
0.0228882	
0.0219727	
0.0222778	
0.0238037	
0.0247192	
0.0228882	
0.0216675	
0.020752	
0.0219727	
0.0250244	
0.0216675	
0.0140381	
0.00335693	
0.00305176	
0.0140381	
0.0228882	
0.0186157	
0.00549316	
-0.0012207	
0.000915527	
0.00213623	
-0.00396729	
-0.00915527	
-0.00335693	
0.0125122	
0.0268555	
0.0308228	
0.0262451	
0.0201416	
0.0170898	
0.0134277	
0.00671387	
-0.00244141	
-0.00946045	
-0.0143433	
-0.020752	
-0.0247192	
-0.0262451	
-0.0244141	
-0.0222778	
-0.0210571	
-0.0180054	
-0.0140381	
-0.0106812	
-0.0088501	
-0.00213623	
0.00793457	
0.0213623	
0.0350952	
0.0506592	
0.0665283	
0.0750732	
0.0756836	
0.0756836	
0.0830078	
0.0939941	
0.0985718	
0.0961304	
0.0927734	
0.0939941	
0.0979614	
0.100098	
0.100098	
0.0979614	
0.0973511	
0.0970459	
0.0973511	
0.0979614	
0.0973511	
0.0958252	
0.0921631	
0.0869751	
0.0827026	
0.0802612	
0.0790405	
0.0790405	
0.0796509	
0.0796509	
0.0793457	
0.0759888	
0.072937	
0.0805664	
0.101624	
0.132446	
0.159302	
0.178223	
0.192871	
0.205383	
0.211182	
0.207214	
0.198364	
0.191956	
0.19043	
0.191345	
0.190735	
0.187988	
0.184937	
0.180664	
0.176392	
0.172729	
0.168457	
0.164185	
0.159607	
0.155334	
0.152283	
0.150452	
0.149231	
0.1474	
0.144043	
0.138855	
0.132446	
0.126648	
0.121765	
0.116882	
0.110474	
0.102844	
0.0952148	
0.0897217	
0.0848389	
0.0793457	
0.0744629	
0.0692749	
0.0634766	
0.0564575	
0.0473022	
0.0424194	
0.0524902	
0.0753784	
0.10498	
0.128174	
0.142822	
0.14801	
0.144348	
0.134583	
0.125427	
0.12146	
0.117798	
0.111084	
0.101013	
0.0909424	
0.0830078	
0.0765991	
0.0692749	
0.0628662	
0.0576782	
0.0518799	
0.0439453	
0.0360107	
0.0292969	
0.0250244	
0.0204468	
0.0146484	
0.00823975	
0.00183105	
-0.00579834	
-0.0131226	
-0.0186157	
-0.0228882	
-0.0274658	
-0.0332642	
-0.0369263	
-0.0372314	
-0.0375366	
-0.039978	
-0.0424194	
-0.0430298	
-0.043335	
-0.0454712	
-0.0506592	
-0.0595093	
-0.065918	
-0.0698853	
-0.0704956	
-0.0692749	
-0.0695801	
-0.0723267	
-0.0762939	
-0.0814819	
-0.0839233	
-0.0836182	
-0.0830078	
-0.083313	
-0.0854492	
-0.0866699	
-0.0881958	
-0.0891113	
-0.0912476	
-0.0930786	
-0.093689	
-0.0933838	
-0.0933838	
-0.0930786	
-0.0942993	
-0.0967407	
-0.098877	
-0.0982666	
-0.0949097	
-0.0906372	
-0.0900269	
-0.0924683	
-0.0964355	
-0.0985718	
-0.0991821	
-0.0985718	
-0.0979614	
-0.0976563	
-0.0982666	
-0.101318	
-0.107727	
-0.115662	
-0.110474	
-0.0860596	
-0.0466919	
-0.00671387	
0.0231934	
0.0482178	
0.0744629	
0.10376	
0.132446	
0.158997	
0.18219	
0.202637	
0.222473	
0.239258	
0.248108	
0.248718	
0.244751	
0.241699	
0.24353	
0.246277	
0.248108	
0.246887	
0.243225	
0.241089	
0.241699	
0.242615	
0.239868	
0.233154	
0.22522	
0.218201	
0.214844	
0.21637	
0.220032	
0.221863	
0.218811	
0.214539	
0.211182	
0.208435	
0.203552	
0.197449	
0.194702	
0.195313	
0.196533	
0.194702	
0.191956	
0.19043	
0.19043	
0.19104	
0.190735	
0.192261	
0.193787	
0.192566	
0.187988	
0.18158	
0.174255	
0.168152	
0.165405	
0.167236	
0.170288	
0.171509	
0.170288	
0.169678	
0.170288	
0.169983	
0.168457	
0.167847	
0.167542	
0.166626	
0.162964	
0.158691	
0.156555	
0.15625	
0.157776	
0.158997	
0.159912	
0.161438	
0.157776	
0.153503	
0.15686	
0.170898	
0.191345	
0.202942	
0.204468	
0.202026	
0.201416	
0.202942	
0.203552	
0.202026	
0.198364	
0.196228	
0.194702	
0.195007	
0.195923	
0.195923	
0.194397	
0.191956	
0.189209	
0.188599	
0.189209	
