dataJAMESwristankleankle.acq
1.0 msec/sample
1 channels
ECG (.05 - 35 Hz)
mV
CH2,
132690,
-0.29541016
-0.29602051
-0.29602051
-0.29602051
-0.29602051
-0.29541016
-0.29510498
-0.29449463
-0.29388428
-0.29296875
-0.29174805
-0.29052734
-0.28900146
-0.28747559
-0.28594971
-0.28442383
-0.28289795
-0.28198242
-0.28106689
-0.28015137
-0.27984619
-0.27954102
-0.27923584
-0.27923584
-0.27923584
-0.27893066
-0.27893066
-0.27893066
-0.27923584
-0.27954102
-0.28015137
-0.28076172
-0.28137207
-0.28198242
-0.28198242
-0.28167725
-0.28045654
-0.27832031
-0.27587891
-0.27313232
-0.27008057
-0.26733398
-0.26397705
-0.26062012
-0.25695801
-0.25299072
-0.24871826
-0.24475098
-0.24078369
-0.23712158
-0.23376465
-0.23040771
-0.22674561
-0.22369385
-0.22064209
-0.21850586
-0.21636963
-0.21484375
-0.21362305
-0.21209717
-0.21057129
-0.20843506
-0.20568848
-0.20294189
-0.19958496
-0.19622803
-0.19317627
-0.18981934
-0.1864624
-0.18280029
-0.17883301
-0.17486572
-0.17089844
-0.16693115
-0.16296387
-0.15930176
-0.15563965
-0.15197754
-0.14892578
-0.14556885
-0.14282227
-0.13977051
-0.13671875
-0.13397217
-0.13092041
-0.12817383
-0.12481689
-0.12176514
-0.11871338
-0.11566162
-0.11260986
-0.10986328
-0.1071167
-0.10437012
-0.10162354
-0.099182129
-0.096740723
-0.094604492
-0.092773438
-0.090942383
-0.08972168
-0.088500977
-0.087280273
-0.086364746
-0.085144043
-0.083618164
-0.082092285
-0.080566406
-0.079040527
-0.077819824
-0.076904297
-0.076293945
-0.075683594
-0.075378418
-0.075683594
-0.076293945
-0.077514648
-0.079040527
-0.081787109
-0.085144043
-0.08972168
-0.095214844
-0.10131836
-0.10864258
-0.11657715
-0.12481689
-0.13366699
-0.14251709
-0.15167236
-0.16052246
-0.16967773
-0.17883301
-0.18798828
-0.19683838
-0.2053833
-0.2142334
-0.22277832
-0.23132324
-0.23986816
-0.24841309
-0.25634766
-0.26428223
-0.27191162
-0.27954102
-0.28717041
-0.2947998
-0.30273438
-0.31097412
-0.31890869
-0.32714844
-0.33538818
-0.34332275
-0.35095215
-0.35827637
-0.36499023
-0.37109375
-0.37658691
-0.38146973
-0.38635254
-0.390625
-0.39520264
-0.3994751
-0.40374756
-0.40771484
-0.41137695
-0.41442871
-0.41687012
-0.41870117
-0.42053223
-0.42205811
-0.42388916
-0.42572021
-0.42755127
-0.4296875
-0.43182373
-0.43395996
-0.43609619
-0.43792725
-0.4397583
-0.44158936
-0.44342041
-0.44464111
-0.44586182
-0.44708252
-0.44799805
-0.44891357
-0.4498291
-0.45074463
-0.45135498
-0.45227051
-0.45288086
-0.45318604
-0.45349121
-0.45379639
-0.45410156
-0.45471191
-0.45532227
-0.45623779
-0.45715332
-0.45806885
-0.4586792
-0.45959473
-0.4598999
-0.46051025
-0.46112061
-0.46173096
-0.46264648
-0.46325684
-0.46356201
-0.46325684
-0.46234131
-0.46081543
-0.4586792
-0.45654297
-0.45440674
-0.45196533
-0.4498291
-0.44769287
-0.44586182
-0.44433594
-0.44342041
-0.44250488
-0.44189453
-0.44128418
-0.44067383
-0.4397583
-0.4385376
-0.43792725
-0.43731689
-0.43701172
-0.43701172
-0.43670654
-0.43640137
-0.43609619
-0.43518066
-0.43426514
-0.43273926
-0.43121338
-0.4296875
-0.42816162
-0.42724609
-0.42633057
-0.42602539
-0.42602539
-0.42602539
-0.42633057
-0.42663574
-0.42694092
-0.42785645
-0.42907715
-0.42999268
-0.4309082
-0.43121338
-0.4309082
-0.42999268
-0.42907715
-0.42785645
-0.42633057
-0.42480469
-0.42327881
-0.42144775
-0.4196167
-0.41778564
-0.41625977
-0.41473389
-0.41320801
-0.4119873
-0.41107178
-0.41046143
-0.41046143
-0.41046143
-0.41107178
-0.41168213
-0.41259766
-0.41351318
-0.41442871
-0.41503906
-0.41564941
-0.41625977
-0.41625977
-0.41595459
-0.41503906
-0.41381836
-0.41229248
-0.4107666
-0.40893555
-0.40710449
-0.40557861
-0.40405273
-0.40283203
-0.40222168
-0.40161133
-0.40161133
-0.4019165
-0.40252686
-0.40344238
-0.40435791
-0.40527344
-0.40618896
-0.40679932
-0.40740967
-0.40802002
-0.40863037
-0.40924072
-0.4095459
-0.40985107
-0.4095459
-0.40893555
-0.40802002
-0.40710449
-0.40618896
-0.40557861
-0.40527344
-0.40527344
-0.40588379
-0.40649414
-0.40771484
-0.40863037
-0.40985107
-0.4107666
-0.41137695
-0.4119873
-0.41229248
-0.41259766
-0.41320801
-0.41381836
-0.41442871
-0.41473389
-0.41442871
-0.41381836
-0.41290283
-0.41168213
-0.41015625
-0.40893555
-0.40771484
-0.40649414
-0.40557861
-0.40466309
-0.40405273
-0.40344238
-0.40344238
-0.40374756
-0.40405273
-0.40435791
-0.40466309
-0.40466309
-0.40496826
-0.40466309
-0.40496826
-0.40496826
-0.40527344
-0.40557861
-0.40557861
-0.40557861
-0.40527344
-0.40527344
-0.40496826
-0.40466309
-0.40435791
-0.40374756
-0.40344238
-0.40283203
-0.40283203
-0.40283203
-0.40283203
-0.40313721
-0.40344238
-0.40405273
-0.40466309
-0.40527344
-0.40618896
-0.40710449
-0.40802002
-0.40863037
-0.40863037
-0.4083252
-0.40771484
-0.40710449
-0.40679932
-0.40649414
-0.40649414
-0.40649414
-0.40679932
-0.40710449
-0.40710449
-0.40740967
-0.40740967
-0.40771484
-0.40771484
-0.40802002
-0.40802002
-0.40802002
-0.40771484
-0.40740967
-0.40679932
-0.40618896
-0.40557861
-0.40466309
-0.40405273
-0.40344238
-0.40252686
-0.4019165
-0.40130615
-0.4006958
-0.4006958
-0.40039062
-0.4006958
-0.40100098
-0.40161133
-0.40222168
-0.40313721
-0.40435791
-0.40527344
-0.40588379
-0.40649414
-0.40710449
-0.40771484
-0.40771484
-0.40740967
-0.40618896
-0.40496826
-0.40344238
-0.40222168
-0.40130615
-0.4006958
-0.40039062
-0.40008545
-0.40008545
-0.40008545
-0.40008545
-0.40039062
-0.40039062
-0.40039062
-0.40008545
-0.39978027
-0.39916992
-0.39886475
-0.39825439
-0.39794922
-0.39764404
-0.39703369
-0.39642334
-0.39581299
-0.39520264
-0.39428711
-0.39367676
-0.39276123
-0.3918457
-0.39123535
-0.390625
-0.39001465
-0.38970947
-0.39001465
-0.39001465
-0.39031982
-0.390625
-0.390625
-0.39093018
-0.39093018
-0.39093018
-0.39093018
-0.39093018
-0.39093018
-0.39154053
-0.39215088
-0.39306641
-0.39459229
-0.39611816
-0.39733887
-0.39855957
-0.39916992
-0.39978027
-0.40008545
-0.40008545
-0.40008545
-0.39978027
-0.3994751
-0.39886475
-0.39855957
-0.39764404
-0.39703369
-0.39642334
-0.39550781
-0.39459229
-0.39337158
-0.39245605
-0.39154053
-0.39093018
-0.390625
-0.390625
-0.39093018
-0.39123535
-0.39154053
-0.39154053
-0.39154053
-0.39123535
-0.39123535
-0.390625
-0.39031982
-0.39001465
-0.38970947
-0.38970947
-0.39001465
-0.39123535
-0.39245605
-0.39428711
-0.39550781
-0.39642334
-0.39703369
-0.39703369
-0.39672852
-0.39642334
-0.39611816
-0.39550781
-0.39520264
-0.39459229
-0.39428711
-0.39367676
-0.39276123
-0.3918457
-0.39031982
-0.38879395
-0.38696289
-0.38482666
-0.38330078
-0.38146973
-0.38024902
-0.37902832
-0.37811279
-0.37689209
-0.37567139
-0.37414551
-0.37261963
-0.37109375
-0.3692627
-0.36773682
-0.36590576
-0.36468506
-0.36376953
-0.362854
-0.36254883
-0.36224365
-0.36193848
-0.36132812
-0.36071777
-0.35980225
-0.35827637
-0.35675049
-0.35491943
-0.35308838
-0.3515625
-0.35003662
-0.34851074
-0.34698486
-0.34515381
-0.34301758
-0.34088135
-0.33905029
-0.33752441
-0.33660889
-0.33660889
-0.33691406
-0.33752441
-0.33874512
-0.33966064
-0.34088135
-0.34210205
-0.34362793
-0.34484863
-0.34637451
-0.34759521
-0.34881592
-0.35003662
-0.35095215
-0.35186768
-0.3527832
-0.35369873
-0.35491943
-0.35614014
-0.35736084
-0.35888672
-0.3604126
-0.36224365
-0.36407471
-0.36621094
-0.36865234
-0.37139893
-0.37384033
-0.37658691
-0.3793335
-0.38146973
-0.38330078
-0.38482666
-0.38604736
-0.38726807
-0.38848877
-0.3894043
-0.390625
-0.39154053
-0.39245605
-0.39337158
-0.39398193
-0.39489746
-0.39581299
-0.39672852
-0.39764404
-0.39855957
-0.39978027
-0.40130615
-0.40283203
-0.40435791
-0.40588379
-0.40710449
-0.40802002
-0.4083252
-0.40863037
-0.4083252
-0.40802002
-0.40740967
-0.40679932
-0.40588379
-0.40496826
-0.40405273
-0.40283203
-0.4019165
-0.4006958
-0.3994751
-0.39855957
-0.39764404
-0.39733887
-0.39703369
-0.39642334
-0.39611816
-0.39550781
-0.39489746
-0.39459229
-0.39428711
-0.39428711
-0.39428711
-0.39398193
-0.39367676
-0.39306641
-0.39276123
-0.39215088
-0.39215088
-0.3918457
-0.3918457
-0.39215088
-0.39276123
-0.39306641
-0.39367676
-0.39428711
-0.39520264
-0.39611816
-0.39733887
-0.39886475
-0.40008545
-0.40161133
-0.40283203
-0.40374756
-0.40466309
-0.40527344
-0.40527344
-0.40496826
-0.40466309
-0.40374756
-0.40283203
-0.4019165
-0.4006958
-0.3994751
-0.39825439
-0.39703369
-0.39581299
-0.39459229
-0.39337158
-0.39215088
-0.39123535
-0.39001465
-0.3894043
-0.38879395
-0.38848877
-0.38848877
-0.38848877
-0.38879395
-0.38909912
-0.38909912
-0.38879395
-0.38879395
-0.38848877
-0.38818359
-0.38787842
-0.38757324
-0.38726807
-0.38696289
-0.38665771
-0.38604736
-0.38543701
-0.38482666
-0.38452148
-0.38391113
-0.38330078
-0.38269043
-0.38238525
-0.3817749
-0.38146973
-0.38116455
-0.38024902
-0.37902832
-0.37719727
-0.37506104
-0.37231445
-0.36956787
-0.36651611
-0.36224365
-0.35705566
-0.34973145
-0.340271
-0.32806396
-0.3137207
-0.29602051
-0.27526855
-0.25054932
-0.22155762
-0.18829346
-0.15106201
-0.11108398
-0.069274902
-0.027160645
0.014343262
0.054016113
0.090942383
0.12420654
0.15350342
0.1776123
0.19622803
0.20751953
0.21057129
0.2053833
0.19134521
0.16876221
0.13824463
0.10070801
0.057067871
0.0082397461
-0.044555664
-0.09979248
-0.15686035
-0.2142334
-0.27130127
-0.32684326
-0.37994385
-0.42999268
-0.47576904
-0.51727295
-0.55389404
-0.58532715
-0.61187744
-0.63293457
-0.64910889
-0.66040039
-0.66711426
-0.66925049
-0.66741943
-0.66223145
-0.65368652
-0.64208984
-0.62774658
-0.61096191
-0.59234619
-0.57220459
-0.55145264
-0.53039551
-0.50994873
-0.48980713
-0.47058105
-0.45257568
-0.43579102
-0.42022705
-0.40618896
-0.39337158
-0.38208008
-0.37200928
-0.36315918
-0.35583496
-0.34973145
-0.34515381
-0.34210205
-0.33996582
-0.33874512
-0.33843994
-0.33874512
-0.33935547
-0.33996582
-0.34057617
-0.34118652
-0.3414917
-0.34179688
-0.34179688
-0.3414917
-0.34088135
-0.33996582
-0.33874512
-0.33691406
-0.33538818
-0.33325195
-0.3314209
-0.32928467
-0.32684326
-0.32440186
-0.32196045
-0.31982422
-0.31768799
-0.31616211
-0.31463623
-0.31341553
-0.3125
-0.31158447
-0.31097412
-0.31036377
-0.31036377
-0.31005859
-0.31036377
-0.31066895
-0.3112793
-0.31188965
-0.31280518
-0.3137207
-0.31494141
-0.31616211
-0.31768799
-0.31890869
-0.31982422
-0.32073975
-0.32165527
-0.32226562
-0.3225708
-0.3225708
-0.32287598
-0.32287598
-0.3225708
-0.32196045
-0.32104492
-0.31982422
-0.31799316
-0.31616211
-0.31402588
-0.31188965
-0.30975342
-0.30792236
-0.30609131
-0.30426025
-0.30273438
-0.30151367
-0.30059814
-0.29968262
-0.29876709
-0.29846191
-0.29815674
-0.29846191
-0.29876709
-0.29937744
-0.29968262
-0.30059814
-0.30151367
-0.30273438
-0.30395508
-0.30456543
-0.30487061
-0.30487061
-0.30487061
-0.30456543
-0.30426025
-0.30395508
-0.30334473
-0.30212402
-0.30090332
-0.29876709
-0.29663086
-0.29418945
-0.29174805
-0.28961182
-0.28747559
-0.28594971
-0.28442383
-0.28289795
-0.28137207
-0.27954102
-0.27770996
-0.27587891
-0.2746582
-0.2734375
-0.27313232
-0.27282715
-0.27282715
-0.27282715
-0.27313232
-0.27313232
-0.2734375
-0.27374268
-0.27435303
-0.27526855
-0.27648926
-0.27801514
-0.27954102
-0.28076172
-0.28198242
-0.28259277
-0.28259277
-0.2822876
-0.28167725
-0.28045654
-0.27954102
-0.27832031
-0.27709961
-0.27618408
-0.27496338
-0.2734375
-0.27160645
-0.26855469
-0.26519775
-0.26153564
-0.25787354
-0.25482178
-0.2520752
-0.24963379
-0.24749756
-0.24536133
-0.24353027
-0.24169922
-0.23986816
-0.23803711
-0.23620605
-0.23468018
-0.23345947
-0.23254395
-0.23193359
-0.23162842
-0.23193359
-0.23193359
-0.23223877
-0.23223877
-0.23223877
-0.23162842
-0.23101807
-0.23010254
-0.22857666
-0.22705078
-0.22521973
-0.22277832
-0.22033691
-0.21759033
-0.21484375
-0.21179199
-0.20843506
-0.20507812
-0.20141602
-0.19775391
-0.1940918
-0.19073486
-0.18737793
-0.18463135
-0.18188477
-0.17913818
-0.17669678
-0.1739502
-0.17089844
-0.16815186
-0.1651001
-0.16174316
-0.15838623
-0.1550293
-0.15167236
-0.14831543
-0.14526367
-0.14221191
-0.13885498
-0.13549805
-0.13214111
-0.12878418
-0.12542725
-0.12207031
-0.11901855
-0.11627197
-0.11322021
-0.11047363
-0.10772705
-0.10467529
-0.10223389
-0.099487305
-0.096740723
-0.094299316
-0.09185791
-0.089416504
-0.086669922
-0.084228516
-0.081481934
-0.078430176
-0.07598877
-0.073547363
-0.071411133
-0.069885254
-0.068054199
-0.066223145
-0.06439209
-0.062561035
-0.061035156
-0.059509277
-0.058288574
-0.057983398
-0.058288574
-0.059204102
-0.061340332
-0.063781738
-0.067138672
-0.070800781
-0.075073242
-0.079345703
-0.084533691
-0.090332031
-0.096435547
-0.10345459
-0.11077881
-0.1184082
-0.12664795
-0.1348877
-0.14312744
-0.15167236
-0.15991211
-0.16815186
-0.17669678
-0.18493652
-0.19317627
-0.20141602
-0.20996094
-0.21881104
-0.22735596
-0.23620605
-0.24505615
-0.25421143
-0.2633667
-0.27282715
-0.2822876
-0.29174805
-0.30090332
-0.30975342
-0.31799316
-0.32562256
-0.33325195
-0.340271
-0.34729004
-0.35369873
-0.36010742
-0.36621094
-0.3717041
-0.37719727
-0.3817749
-0.38604736
-0.39001465
-0.39367676
-0.39672852
-0.39978027
-0.40283203
-0.40557861
-0.40863037
-0.41137695
-0.41412354
-0.41625977
-0.418396
-0.42022705
-0.42175293
-0.42327881
-0.42510986
-0.42633057
-0.42724609
-0.42785645
-0.42816162
-0.42877197
-0.42938232
-0.42999268
-0.4309082
-0.43212891
-0.43304443
-0.43365479
-0.43457031
-0.43518066
-0.43579102
-0.43640137
-0.43701172
-0.43731689
-0.43731689
-0.43731689
-0.43731689
-0.43731689
-0.43701172
-0.43640137
-0.43579102
-0.43518066
-0.43457031
-0.43365479
-0.43304443
-0.43243408
-0.43182373
-0.43121338
-0.4309082
-0.43060303
-0.43029785
-0.43029785
-0.43060303
-0.43151855
-0.43273926
-0.43457031
-0.43640137
-0.43823242
-0.44006348
-0.44158936
-0.44311523
-0.44464111
-0.44586182
-0.44677734
-0.4473877
-0.44708252
-0.44586182
-0.44433594
-0.44219971
-0.4397583
-0.43640137
-0.43273926
-0.42877197
-0.42480469
-0.4208374
-0.41717529
-0.41351318
-0.41046143
-0.40771484
-0.40527344
-0.40283203
-0.40100098
-0.39978027
-0.39916992
-0.39886475
-0.3994751
-0.40008545
-0.40100098
-0.40161133
-0.40222168
-0.40283203
-0.40313721
-0.40344238
-0.40374756
-0.40405273
-0.40466309
-0.40466309
-0.40466309
-0.40496826
-0.40496826
-0.40557861
-0.40618896
-0.40710449
-0.40802002
-0.40893555
-0.4095459
-0.40985107
-0.40985107
-0.40924072
-0.40802002
-0.40679932
-0.40496826
-0.40344238
-0.40130615
-0.3994751
-0.39733887
-0.39489746
-0.39245605
-0.39031982
-0.38818359
-0.38665771
-0.38513184
-0.38421631
-0.38330078
-0.38269043
-0.38238525
-0.38269043
-0.38360596
-0.38513184
-0.38696289
-0.3894043
-0.3918457
-0.39428711
-0.39611816
-0.39764404
-0.39855957
-0.39916992
-0.3994751
-0.39978027
-0.39978027
-0.3994751
-0.39886475
-0.39825439
-0.39703369
-0.39520264
-0.39337158
-0.39123535
-0.38879395
-0.38665771
-0.38452148
-0.38269043
-0.38085938
-0.37963867
-0.37841797
-0.37719727
-0.37597656
-0.37536621
-0.37475586
-0.37475586
-0.37475586
-0.37536621
-0.37628174
-0.37780762
-0.3793335
-0.38116455
-0.38299561
-0.38482666
-0.38665771
-0.38848877
-0.39001465
-0.39154053
-0.39276123
-0.39398193
-0.39489746
-0.39581299
-0.39672852
-0.39703369
-0.39733887
-0.39733887
-0.39703369
-0.39642334
-0.39550781
-0.39459229
-0.39367676
-0.39276123
-0.3918457
-0.39123535
-0.39093018
-0.39093018
-0.39123535
-0.39154053
-0.3918457
-0.39215088
-0.39215088
-0.39215088
-0.39245605
-0.39245605
-0.39215088
-0.39215088
-0.3918457
-0.39154053
-0.39123535
-0.39093018
-0.39031982
-0.39001465
-0.3894043
-0.38909912
-0.38879395
-0.38848877
-0.38848877
-0.38848877
-0.38848877
-0.38848877
-0.38879395
-0.3894043
-0.39001465
-0.390625
-0.39154053
-0.3918457
-0.39245605
-0.39276123
-0.39306641
-0.39337158
-0.39367676
-0.39398193
-0.39459229
-0.39489746
-0.39489746
-0.39489746
-0.39489746
-0.39489746
-0.39489746
-0.39550781
-0.39642334
-0.39764404
-0.39855957
-0.3994751
-0.3994751
-0.39886475
-0.39764404
-0.39642334
-0.39520264
-0.39398193
-0.39306641
-0.3918457
-0.390625
-0.38909912
-0.38726807
-0.38543701
-0.38330078
-0.38146973
-0.37994385
-0.37872314
-0.37811279
-0.37780762
-0.37811279
-0.37872314
-0.37994385
-0.38116455
-0.38269043
-0.38452148
-0.38635254
-0.38787842
-0.38909912
-0.39031982
-0.39093018
-0.39154053
-0.3918457
-0.39215088
-0.39215088
-0.39215088
-0.3918457
-0.39123535
-0.39093018
-0.390625
-0.390625
-0.390625
-0.390625
-0.39123535
-0.3918457
-0.39245605
-0.39306641
-0.39367676
-0.39398193
-0.39428711
-0.39428711
-0.39428711
-0.39398193
-0.39367676
-0.39306641
-0.3918457
-0.390625
-0.38879395
-0.38696289
-0.38513184
-0.38330078
-0.38146973
-0.37994385
-0.37841797
-0.37750244
-0.37689209
-0.37628174
-0.37658691
-0.37689209
-0.37750244
-0.37841797
-0.3793335
-0.3805542
-0.3817749
-0.38330078
-0.38543701
-0.38757324
-0.38970947
-0.3918457
-0.39337158
-0.39459229
-0.39520264
-0.39550781
-0.39550781
-0.39520264
-0.39489746
-0.39398193
-0.39276123
-0.39123535
-0.3894043
-0.38726807
-0.38482666
-0.38238525
-0.38024902
-0.37872314
-0.37719727
-0.37658691
-0.37658691
-0.37689209
-0.37780762
-0.37902832
-0.37994385
-0.38085938
-0.38208008
-0.38299561
-0.38421631
-0.38543701
-0.38665771
-0.38757324
-0.38818359
-0.38818359
-0.38757324
-0.38665771
-0.38513184
-0.38299561
-0.38116455
-0.3793335
-0.37750244
-0.37597656
-0.37475586
-0.37384033
-0.37322998
-0.3729248
-0.37261963
-0.3729248
-0.37322998
-0.37384033
-0.37475586
-0.37597656
-0.37689209
-0.37811279
-0.3793335
-0.38024902
-0.38146973
-0.38208008
-0.38299561
-0.38391113
-0.38482666
-0.38574219
-0.38635254
-0.38665771
-0.38665771
-0.38696289
-0.38696289
-0.38696289
-0.38726807
-0.38757324
-0.38787842
-0.38787842
-0.38787842
-0.38757324
-0.38696289
-0.38635254
-0.38543701
-0.38421631
-0.38299561
-0.3817749
-0.38024902
-0.37902832
-0.37780762
-0.37689209
-0.37597656
-0.37536621
-0.37536621
-0.37567139
-0.37628174
-0.37719727
-0.37811279
-0.37902832
-0.37994385
-0.3805542
-0.38116455
-0.3817749
-0.38208008
-0.38208008
-0.38208008
-0.38146973
-0.3805542
-0.37963867
-0.37841797
-0.37658691
-0.37445068
-0.37200928
-0.36987305
-0.36743164
-0.36560059
-0.36376953
-0.362854
-0.36193848
-0.3616333
-0.3616333
-0.36224365
-0.362854
-0.36376953
-0.36468506
-0.36560059
-0.36651611
-0.36712646
-0.36773682
-0.36834717
-0.36895752
-0.36956787
-0.37017822
-0.3704834
-0.3704834
-0.36987305
-0.36865234
-0.36651611
-0.36376953
-0.3604126
-0.35675049
-0.35308838
-0.34942627
-0.34576416
-0.34240723
-0.33905029
-0.33569336
-0.3326416
-0.32989502
-0.32745361
-0.32562256
-0.32440186
-0.3237915
-0.32348633
-0.32348633
-0.32409668
-0.32501221
-0.32623291
-0.32775879
-0.32958984
-0.3314209
-0.33325195
-0.33477783
-0.33630371
-0.33752441
-0.33843994
-0.33905029
-0.33966064
-0.33996582
-0.33996582
-0.33996582
-0.33996582
-0.33996582
-0.340271
-0.34057617
-0.34179688
-0.34332275
-0.34545898
-0.34790039
-0.35064697
-0.35339355
-0.35614014
-0.35919189
-0.36224365
-0.36529541
-0.36865234
-0.37200928
-0.37536621
-0.37872314
-0.3817749
-0.38452148
-0.38696289
-0.38879395
-0.39031982
-0.39123535
-0.39154053
-0.39154053
-0.390625
-0.38970947
-0.38879395
-0.38787842
-0.38726807
-0.38665771
-0.38604736
-0.38513184
-0.38452148
-0.38391113
-0.38330078
-0.38299561
-0.38269043
-0.38269043
-0.38269043
-0.38299561
-0.38360596
-0.38421631
-0.38482666
-0.38543701
-0.38604736
-0.38665771
-0.38726807
-0.38787842
-0.38848877
-0.38879395
-0.38909912
-0.38909912
-0.38909912
-0.38879395
-0.38848877
-0.38848877
-0.38818359
-0.38787842
-0.38787842
-0.38757324
-0.38757324
-0.38757324
-0.38787842
-0.38818359
-0.38879395
-0.38970947
-0.390625
-0.39215088
-0.39398193
-0.39581299
-0.39794922
-0.39978027
-0.40130615
-0.40222168
-0.40252686
-0.4019165
-0.40100098
-0.3994751
-0.39794922
-0.39611816
-0.39398193
-0.39154053
-0.38879395
-0.38574219
-0.38269043
-0.3793335
-0.37628174
-0.37353516
-0.37109375
-0.3692627
-0.36804199
-0.36743164
-0.36743164
-0.36804199
-0.36865234
-0.36956787
-0.37078857
-0.3717041
-0.37231445
-0.37322998
-0.37414551
-0.37506104
-0.37567139
-0.37628174
-0.37658691
-0.37689209
-0.37658691
-0.37628174
-0.37567139
-0.37506104
-0.37445068
-0.37384033
-0.37322998
-0.37261963
-0.37231445
-0.37200928
-0.3717041
-0.37139893
-0.37109375
-0.37078857
-0.3704834
-0.36987305
-0.36956787
-0.36895752
-0.36834717
-0.36743164
-0.36651611
-0.36560059
-0.36468506
-0.36376953
-0.36254883
-0.36132812
-0.36010742
-0.35858154
-0.35675049
-0.35461426
-0.35247803
-0.35003662
-0.34759521
-0.34545898
-0.3427124
-0.33935547
-0.33477783
-0.32836914
-0.31890869
-0.30670166
-0.2911377
-0.2722168
-0.24963379
-0.22247314
-0.19073486
-0.1550293
-0.11566162
-0.073852539
-0.030822754
0.011901855
0.053405762
0.092773438
0.12939453
0.16174316
0.18890381
0.20996094
0.22369385
0.23010254
0.22766113
0.2166748
0.1965332
0.16815186
0.13214111
0.089111328
0.040283203
-0.012817383
-0.069274902
-0.12756348
-0.1864624
-0.24505615
-0.30181885
-0.35644531
-0.40802002
-0.45532227
-0.49835205
-0.5368042
-0.56976318
-0.59753418
-0.61981201
-0.63659668
-0.64788818
-0.6539917
-0.6552124
-0.65216064
-0.6451416
-0.6350708
-0.62225342
-0.60668945
-0.58959961
-0.57067871
-0.55114746
-0.53131104
-0.51116943
-0.49194336
-0.47302246
-0.45501709
-0.43823242
-0.42266846
-0.40863037
-0.39581299
-0.38421631
-0.37384033
-0.36468506
-0.35644531
-0.34942627
-0.34362793
-0.33905029
-0.33538818
-0.33203125
-0.32897949
-0.32623291
-0.3237915
-0.32196045
-0.32043457
-0.31921387
-0.31860352
-0.31799316
-0.31768799
-0.31738281
-0.31738281
-0.31707764
-0.31677246
-0.31677246
-0.31646729
-0.31616211
-0.31585693
-0.31585693
-0.31616211
-0.31707764
-0.31829834
-0.31921387
-0.31982422
-0.31982422
-0.31921387
-0.31799316
-0.31646729
-0.31463623
-0.3125
-0.31066895
-0.30883789
-0.30700684
-0.30548096
-0.3036499
-0.30151367
-0.29968262
-0.29785156
-0.29602051
-0.29449463
-0.2935791
-0.29296875
-0.29296875
-0.29327393
-0.29418945
-0.29510498
-0.29663086
-0.29815674
-0.29968262
-0.30151367
-0.30303955
-0.30456543
-0.30517578
-0.30517578
-0.30517578
-0.30456543
-0.30426025
-0.3036499
-0.30303955
-0.3024292
-0.30151367
-0.30029297
-0.29907227
-0.29754639
-0.29632568
-0.2947998
-0.2935791
-0.29205322
-0.29052734
-0.28900146
-0.28778076
-0.28656006
-0.28564453
-0.28503418
-0.28442383
-0.28381348
-0.2835083
-0.28289795
-0.28259277
-0.2822876
-0.28198242
-0.28137207
-0.28106689
-0.28045654
-0.28045654
-0.28015137
-0.28015137
-0.28015137
-0.28015137
-0.28015137
-0.28015137
-0.28045654
-0.28045654
-0.28076172
-0.28106689
-0.28167725
-0.28167725
-0.28137207
-0.28106689
-0.28076172
-0.28076172
-0.28076172
-0.28137207
-0.28198242
-0.2822876
-0.28259277
-0.28259277
-0.28259277
-0.28259277
-0.2822876
-0.28198242
-0.28167725
-0.28137207
-0.28106689
-0.28015137
-0.27893066
-0.27709961
-0.27496338
-0.27282715
-0.27038574
-0.26794434
-0.26550293
-0.26306152
-0.26092529
-0.25878906
-0.25695801
-0.25482178
-0.2532959
-0.25146484
-0.24993896
-0.24871826
-0.24749756
-0.24688721
-0.24688721
-0.24688721
-0.24719238
-0.24749756
-0.24749756
-0.24749756
-0.24719238
-0.24658203
-0.2456665
-0.2444458
-0.24353027
-0.24230957
-0.24108887
-0.24017334
-0.23895264
-0.23742676
-0.23590088
-0.23376465
-0.23193359
-0.22979736
-0.22796631
-0.22613525
-0.22460938
-0.22277832
-0.22094727
-0.21911621
-0.21728516
-0.21514893
-0.21331787
-0.21148682
-0.20935059
-0.20751953
-0.2053833
-0.20324707
-0.20111084
-0.19927979
-0.19714355
-0.19500732
-0.19287109
-0.19042969
-0.18798828
-0.18554688
-0.18310547
-0.18066406
-0.17791748
-0.1751709
-0.17242432
-0.16937256
-0.1663208
-0.16296387
-0.15930176
-0.15563965
-0.15197754
-0.14831543
-0.14465332
-0.14099121
-0.1373291
-0.13366699
-0.13000488
-0.12664795
-0.12359619
-0.12084961
-0.11810303
-0.11566162
-0.11322021
-0.11077881
-0.1083374
-0.10559082
-0.10253906
-0.099182129
-0.09552002
-0.091552734
-0.087890625
-0.08392334
-0.079956055
-0.076293945
-0.072631836
-0.069580078
-0.06652832
-0.063476562
-0.06072998
-0.057678223
-0.054626465
-0.051879883
-0.050048828
-0.048522949
-0.047912598
-0.047607422
-0.047607422
-0.047912598
-0.048522949
-0.049133301
-0.050048828
-0.051269531
-0.052490234
-0.054321289
-0.05645752
-0.059204102
-0.062255859
-0.066223145
-0.071105957
-0.076293945
-0.082397461
-0.089111328
-0.096435547
-0.10437012
-0.11291504
-0.12145996
-0.13000488
-0.13885498
-0.14801025
-0.15716553
-0.1663208
-0.17578125
-0.18554688
-0.1953125
-0.20507812
-0.21484375
-0.2243042
-0.23345947
-0.24230957
-0.25115967
-0.26000977
-0.26855469
-0.27709961
-0.28533936
-0.2935791
-0.30181885
-0.30975342
-0.31768799
-0.32531738
-0.33294678
-0.340271
-0.34759521
-0.35430908
-0.36071777
-0.36682129
-0.37231445
-0.37719727
-0.3817749
-0.38604736
-0.39031982
-0.39459229
-0.39855957
-0.40222168
-0.40557861
-0.4083252
-0.41046143
-0.41229248
-0.41351318
-0.41473389
-0.41595459
-0.41748047
-0.41870117
-0.4196167
-0.42022705
-0.42053223
-0.42053223
-0.42022705
-0.42022705
-0.42022705
-0.42022705
-0.42022705
-0.42022705
-0.42053223
-0.42053223
-0.42053223
-0.4208374
-0.42144775
-0.42236328
-0.42358398
-0.42541504
-0.42694092
-0.4284668
-0.4296875
-0.43060303
-0.43151855
-0.43212891
-0.43273926
-0.43365479
-0.43395996
-0.43426514
-0.43426514
-0.43395996
-0.43395996
-0.43365479
-0.43365479
-0.43365479
-0.43334961
-0.43334961
-0.43304443
-0.43273926
-0.43243408
-0.43212891
-0.43182373
-0.43182373
-0.43151855
-0.43121338
-0.4309082
-0.43029785
-0.4296875
-0.42907715
-0.4284668
-0.42785645
-0.42755127
-0.42724609
-0.42694092
-0.42694092
-0.42663574
-0.42633057
-0.42602539
-0.42541504
-0.42510986
-0.42449951
-0.42388916
-0.42358398
-0.42297363
-0.42205811
-0.4208374
-0.41931152
-0.41778564
-0.41595459
-0.41442871
-0.41259766
-0.4107666
-0.40893555
-0.40710449
-0.40557861
-0.40435791
-0.40374756
-0.40344238
-0.40313721
-0.40344238
-0.40405273
-0.40466309
-0.40527344
-0.40588379
-0.40588379
-0.40527344
-0.40466309
-0.40344238
-0.4019165
-0.40008545
-0.39794922
-0.39581299
-0.39337158
-0.390625
-0.38787842
-0.38482666
-0.3817749
-0.37902832
-0.37658691
-0.37445068
-0.37261963
-0.37139893
-0.37078857
-0.37078857
-0.37109375
-0.37200928
-0.37353516
-0.37506104
-0.37689209
-0.37872314
-0.38024902
-0.3817749
-0.38330078
-0.38421631
-0.38543701
-0.38604736
-0.38665771
-0.38696289
-0.38726807
-0.38726807
-0.38726807
-0.38757324
-0.38757324
-0.38818359
-0.38848877
-0.38909912
-0.3894043
-0.38970947
-0.39001465
-0.39031982
-0.39031982
-0.390625
-0.39093018
-0.39154053
-0.39245605
-0.39306641
-0.39337158
-0.39367676
-0.39306641
-0.39245605
-0.39093018
-0.3894043
-0.38787842
-0.38604736
-0.38452148
-0.38330078
-0.3817749
-0.38024902
-0.37902832
-0.37750244
-0.37628174
-0.37536621
-0.37475586
-0.37445068
-0.37445068
-0.37506104
-0.37567139
-0.37689209
-0.37841797
-0.37994385
-0.38146973
-0.38269043
-0.38391113
-0.38482666
-0.38604736
-0.38696289
-0.38757324
-0.38818359
-0.38848877
-0.38848877
-0.38848877
-0.38848877
-0.38879395
-0.38909912
-0.3894043
-0.38970947
-0.38970947
-0.38970947
-0.38970947
-0.39001465
-0.39031982
-0.39093018
-0.3918457
-0.39245605
-0.39306641
-0.39276123
-0.39245605
-0.39154053
-0.390625
-0.39001465
-0.3894043
-0.38879395
-0.38818359
-0.38787842
-0.38726807
-0.38665771
-0.38574219
-0.38482666
-0.38391113
-0.38330078
-0.38269043
-0.38269043
-0.38269043
-0.38269043
-0.38299561
-0.38299561
-0.38299561
-0.38299561
-0.38299561
-0.38330078
-0.38360596
-0.38360596
-0.38391113
-0.38391113
-0.38421631
-0.38452148
-0.38452148
-0.38482666
-0.38513184
-0.38543701
-0.38604736
-0.38665771
-0.38757324
-0.38879395
-0.3894043
-0.39001465
-0.39031982
-0.390625
-0.39031982
-0.39031982
-0.39001465
-0.3894043
-0.38909912
-0.38848877
-0.38818359
-0.38726807
-0.38665771
-0.38574219
-0.38513184
-0.38452148
-0.38391113
-0.38391113
-0.38360596
-0.38391113
-0.38452148
-0.38513184
-0.38635254
-0.38757324
-0.38879395
-0.39001465
-0.39154053
-0.39306641
-0.39459229
-0.39642334
-0.39794922
-0.3994751
-0.4006958
-0.40130615
-0.40130615
-0.4006958
-0.40008545
-0.39916992
-0.39825439
-0.39733887
-0.39672852
-0.39581299
-0.39489746
-0.39337158
-0.39154053
-0.3894043
-0.38726807
-0.38513184
-0.38330078
-0.38146973
-0.37994385
-0.37841797
-0.37750244
-0.37658691
-0.37567139
-0.37506104
-0.37475586
-0.37445068
-0.37445068
-0.37445068
-0.37506104
-0.37597656
-0.37719727
-0.37841797
-0.3793335
-0.3805542
-0.38146973
-0.38238525
-0.38360596
-0.38482666
-0.38574219
-0.38635254
-0.38665771
-0.38635254
-0.38604736
-0.38543701
-0.38452148
-0.38360596
-0.38299561
-0.38238525
-0.38208008
-0.38208008
-0.3817749
-0.38146973
-0.38116455
-0.38085938
-0.38085938
-0.38085938
-0.38146973
-0.38238525
-0.38360596
-0.38482666
-0.38635254
-0.38757324
-0.38879395
-0.38970947
-0.39031982
-0.390625
-0.39123535
-0.3918457
-0.39245605
-0.39276123
-0.39306641
-0.39276123
-0.39215088
-0.39123535
-0.39001465
-0.38848877
-0.38696289
-0.38574219
-0.38452148
-0.38330078
-0.38208008
-0.38146973
-0.3805542
-0.37963867
-0.37902832
-0.37872314
-0.37841797
-0.37841797
-0.37872314
-0.37872314
-0.37872314
-0.37872314
-0.37902832
-0.37902832
-0.37902832
-0.3793335
-0.3793335
-0.3793335
-0.3793335
-0.37963867
-0.37963867
-0.37994385
-0.3805542
-0.38146973
-0.38208008
-0.38269043
-0.38299561
-0.38330078
-0.38360596
-0.38391113
-0.38421631
-0.38421631
-0.38421631
-0.38391113
-0.38330078
-0.38269043
-0.3817749
-0.38116455
-0.3805542
-0.37994385
-0.37994385
-0.3805542
-0.38146973
-0.38238525
-0.38330078
-0.38421631
-0.38452148
-0.38513184
-0.38604736
-0.38665771
-0.38726807
-0.38787842
-0.38787842
-0.38726807
-0.38665771
-0.38543701
-0.38421631
-0.38330078
-0.38208008
-0.38116455
-0.38024902
-0.3793335
-0.37872314
-0.37811279
-0.37811279
-0.37841797
-0.37963867
-0.38085938
-0.38299561
-0.38513184
-0.38757324
-0.39001465
-0.39215088
-0.39398193
-0.39520264
-0.39611816
-0.39672852
-0.39642334
-0.39581299
-0.39428711
-0.39245605
-0.39001465
-0.38726807
-0.38421631
-0.38085938
-0.37719727
-0.37384033
-0.3704834
-0.36743164
-0.36468506
-0.36254883
-0.36071777
-0.35949707
-0.35888672
-0.35858154
-0.35858154
-0.35919189
-0.36010742
-0.36132812
-0.362854
-0.36407471
-0.36560059
-0.36651611
-0.36712646
-0.36743164
-0.36682129
-0.36621094
-0.36468506
-0.362854
-0.36071777
-0.35858154
-0.35614014
-0.35369873
-0.3515625
-0.34942627
-0.34729004
-0.34515381
-0.34240723
-0.33996582
-0.33752441
-0.33569336
-0.33477783
-0.33416748
-0.33447266
-0.33508301
-0.33599854
-0.33691406
-0.33782959
-0.33874512
-0.33935547
-0.33996582
-0.34088135
-0.3414917
-0.34240723
-0.34332275
-0.34423828
-0.34484863
-0.34545898
-0.34545898
-0.34545898
-0.34515381
-0.34484863
-0.34454346
-0.34423828
-0.34423828
-0.34454346
-0.34545898
-0.34667969
-0.34820557
-0.35003662
-0.35186768
-0.35369873
-0.35583496
-0.35766602
-0.35980225
-0.36224365
-0.36437988
-0.36712646
-0.36956787
-0.37231445
-0.37475586
-0.37719727
-0.3793335
-0.38116455
-0.38269043
-0.38421631
-0.38574219
-0.38696289
-0.38818359
-0.38909912
-0.39031982
-0.39154053
-0.39306641
-0.39520264
-0.39733887
-0.39978027
-0.4019165
-0.40313721
-0.40405273
-0.40405273
-0.40405273
-0.40374756
-0.40313721
-0.40252686
-0.4019165
-0.4006958
-0.3994751
-0.39794922
-0.39642334
-0.39459229
-0.39245605
-0.390625
-0.38909912
-0.38757324
-0.38665771
-0.38604736
-0.38604736
-0.38635254
-0.38696289
-0.38818359
-0.38909912
-0.39031982
-0.39154053
-0.39245605
-0.39337158
-0.39398193
-0.39459229
-0.39459229
-0.39459229
-0.39459229
-0.39428711
-0.39367676
-0.39306641
-0.39245605
-0.39154053
-0.39123535
-0.39093018
-0.39093018
-0.39093018
-0.39123535
-0.39123535
-0.3918457
-0.39215088
-0.39276123
-0.39337158
-0.39398193
-0.39428711
-0.39459229
-0.39489746
-0.39489746
-0.39520264
-0.39520264
-0.39489746
-0.39459229
-0.39398193
-0.39337158
-0.39245605
-0.39154053
-0.390625
-0.38970947
-0.38879395
-0.38818359
-0.38757324
-0.38726807
-0.38726807
-0.38726807
-0.38726807
-0.38726807
-0.38726807
-0.38696289
-0.38696289
-0.38665771
-0.38665771
-0.38665771
-0.38665771
-0.38635254
-0.38604736
-0.38574219
-0.38513184
-0.38452148
-0.38391113
-0.38330078
-0.38238525
-0.3817749
-0.38085938
-0.37994385
-0.37872314
-0.37750244
-0.37597656
-0.37445068
-0.3729248
-0.37139893
-0.37017822
-0.36895752
-0.36743164
-0.36590576
-0.36407471
-0.36193848
-0.35919189
-0.35614014
-0.35308838
-0.34942627
-0.34484863
-0.33935547
-0.33203125
-0.32287598
-0.31097412
-0.29602051
-0.27770996
-0.25512695
-0.22888184
-0.19836426
-0.16448975
-0.12817383
-0.090026855
-0.051574707
-0.013122559
0.023803711
0.058288574
0.089416504
0.11657715
0.13793945
0.15319824
0.16113281
0.16113281
0.15258789
0.13549805
0.11047363
0.077819824
0.038452148
-0.007019043
-0.057373047
-0.11169434
-0.16815186
-0.2255249
-0.28259277
-0.33813477
-0.390625
-0.44006348
-0.48492432
-0.5255127
-0.56091309
-0.59143066
-0.61676025
-0.63690186
-0.65185547
-0.66162109
-0.66680908
-0.66772461
-0.66497803
-0.65856934
-0.64971924
-0.63812256
-0.62469482
-0.60974121
-0.59356689
-0.57647705
-0.55908203
-0.54168701
-0.52429199
-0.50750732
-0.49133301
-0.47576904
-0.46112061
-0.4473877
-0.43457031
-0.42266846
-0.4119873
-0.40222168
-0.39398193
-0.38635254
-0.37994385
-0.37414551
-0.36895752
-0.36407471
-0.35949707
-0.35552979
-0.35217285
-0.34973145
-0.34759521
-0.34606934
-0.34515381
-0.34423828
-0.34362793
-0.34301758
-0.3427124
-0.34210205
-0.34179688
-0.3414917
-0.34118652
-0.34118652
-0.34088135
-0.34088135
-0.34088135
-0.34057617
-0.34057617
-0.340271
-0.340271
-0.34057617
-0.34057617
-0.34088135
-0.34057617
-0.340271
-0.33966064
-0.33874512
-0.33813477
-0.33721924
-0.33630371
-0.33508301
-0.3338623
-0.33233643
-0.33081055
-0.32897949
-0.32714844
-0.32501221
-0.32287598
-0.32073975
-0.31860352
-0.31646729
-0.31463623
-0.31280518
-0.31158447
-0.31036377
-0.30975342
-0.30914307
-0.30914307
-0.30944824
-0.30975342
-0.31066895
-0.31188965
-0.31311035
-0.31433105
-0.31555176
-0.31646729
-0.31707764
-0.31768799
-0.31860352
-0.31951904
-0.32043457
-0.32104492
-0.32165527
-0.32196045
-0.32196045
-0.32165527
-0.3213501
-0.32073975
-0.31982422
-0.31921387
-0.31829834
-0.31738281
-0.31677246
-0.31585693
-0.31494141
-0.3137207
-0.3125
-0.3112793
-0.31005859
-0.30914307
-0.30822754
-0.30792236
-0.30792236
-0.30792236
-0.30822754
-0.30853271
-0.30853271
-0.30822754
-0.30792236
-0.30761719
-0.30731201
-0.30700684
-0.30639648
-0.30578613
-0.30517578
-0.30426025
-0.30334473
-0.30212402
-0.30090332
-0.29968262
-0.29815674
-0.29693604
-0.29571533
-0.2947998
-0.29418945
-0.2935791
-0.29327393
-0.29296875
-0.29296875
-0.29266357
-0.29266357
-0.29266357
-0.29266357
-0.29296875
-0.29327393
-0.2935791
-0.2935791
-0.2935791
-0.2935791
-0.2935791
-0.29296875
-0.29266357
-0.29174805
-0.2911377
-0.29022217
-0.28930664
-0.28808594
-0.28656006
-0.28503418
-0.28320312
-0.28137207
-0.27954102
-0.27770996
-0.27618408
-0.2746582
-0.2734375
-0.27282715
-0.27252197
-0.27191162
-0.27160645
-0.27130127
-0.27099609
-0.27069092
-0.27038574
-0.27038574
-0.27038574
-0.27008057
-0.26977539
-0.26916504
-0.26824951
-0.26733398
-0.26580811
-0.26397705
-0.26184082
-0.25970459
-0.25787354
-0.25604248
-0.25482178
-0.25360107
-0.25238037
-0.25115967
-0.25024414
-0.24902344
-0.24780273
-0.24658203
-0.2456665
-0.24414062
-0.24200439
-0.23956299
-0.23651123
-0.2331543
-0.22979736
-0.22583008
-0.22155762
-0.2166748
-0.21179199
-0.206604
-0.20141602
-0.19622803
-0.19104004
-0.18615723
-0.18188477
-0.1776123
-0.17364502
-0.16998291
-0.16693115
-0.16448975
-0.16204834
-0.15991211
-0.15808105
-0.15655518
-0.15472412
-0.15289307
-0.15106201
-0.14923096
-0.14709473
-0.14526367
-0.14312744
-0.14068604
-0.13824463
-0.13549805
-0.13305664
-0.13031006
-0.12756348
-0.12481689
-0.12207031
-0.11932373
-0.11657715
-0.11413574
-0.11199951
-0.10986328
-0.10772705
-0.105896
-0.10375977
-0.10192871
-0.09979248
-0.098266602
-0.097045898
-0.096130371
-0.09552002
-0.095214844
-0.095214844
-0.09552002
-0.096130371
-0.097351074
-0.099182129
-0.10162354
-0.10437012
-0.10772705
-0.11138916
-0.11566162
-0.12054443
-0.12573242
-0.13122559
-0.1373291
-0.14343262
-0.15014648
-0.15655518
-0.16326904
-0.17028809
-0.1776123
-0.1852417
-0.19317627
-0.20202637
-0.21087646
-0.22033691
-0.22979736
-0.23895264
-0.24780273
-0.25665283
-0.26519775
-0.27374268
-0.28198242
-0.29022217
-0.29785156
-0.30548096
-0.31280518
-0.32012939
-0.32714844
-0.33355713
-0.33966064
-0.34545898
-0.35125732
-0.35675049
-0.36254883
-0.36834717
-0.37414551
-0.37994385
-0.38543701
-0.39093018
-0.39642334
-0.40130615
-0.40588379
-0.41046143
-0.41473389
-0.418396
-0.42205811
-0.42541504
-0.4284668
-0.43121338
-0.43365479
-0.43579102
-0.43792725
-0.44006348
-0.44219971
-0.44403076
-0.44616699
-0.44799805
-0.4498291
-0.45166016
-0.45318604
-0.45501709
-0.45684814
-0.4586792
-0.46051025
-0.46234131
-0.46386719
-0.46569824
-0.4675293
-0.46905518
-0.47027588
-0.47088623
-0.47149658
-0.47180176
-0.47241211
-0.47271729
-0.47302246
-0.47332764
-0.47363281
-0.47363281
-0.47363281
-0.47332764
-0.47271729
-0.47210693
-0.47119141
-0.47058105
-0.46966553
-0.46905518
-0.46844482
-0.4675293
-0.46661377
-0.46600342
-0.46539307
-0.46508789
-0.46478271
-0.46478271
-0.46447754
-0.46417236
-0.46356201
-0.46234131
-0.46081543
-0.45959473
-0.45806885
-0.45684814
-0.45593262
-0.45501709
-0.45410156
-0.45288086
-0.45166016
-0.45043945
-0.44921875
-0.44830322
-0.4473877
-0.44708252
-0.44647217
-0.44616699
-0.44586182
-0.44586182
-0.44555664
-0.44555664
-0.44586182
-0.44616699
-0.44647217
-0.44677734
-0.44677734
-0.44647217
-0.44555664
-0.44464111
-0.44342041
-0.44250488
-0.44128418
-0.44036865
-0.4397583
-0.43914795
-0.43823242
-0.43792725
-0.43731689
-0.43670654
-0.43609619
-0.43548584
-0.43487549
-0.43426514
-0.43365479
-0.43334961
-0.43304443
-0.43243408
-0.43212891
-0.43151855
-0.43060303
-0.42907715
-0.42785645
-0.42602539
-0.42449951
-0.42266846
-0.4208374
-0.41931152
-0.41748047
-0.41595459
-0.41473389
-0.41351318
-0.41259766
-0.41168213
-0.4107666
-0.41015625
-0.4095459
-0.4095459
-0.4095459
-0.40985107
-0.41046143
-0.41107178
-0.4119873
-0.41259766
-0.41351318
-0.41473389
-0.41564941
-0.41717529
-0.418396
-0.4196167
-0.42053223
-0.42144775
-0.42205811
-0.42266846
-0.42236328
-0.42205811
-0.42144775
-0.42053223
-0.4196167
-0.41870117
-0.41778564
-0.41687012
-0.41625977
-0.41534424
-0.41473389
-0.41381836
-0.41351318
-0.41290283
-0.41290283
-0.41320801
-0.41381836
-0.41503906
-0.41687012
-0.41870117
-0.42053223
-0.42205811
-0.42297363
-0.42388916
-0.42449951
-0.42510986
-0.42541504
-0.42572021
-0.42572021
-0.42510986
-0.42419434
-0.42327881
-0.42236328
-0.42175293
-0.42144775
-0.4208374
-0.42022705
-0.4196167
-0.41870117
-0.41778564
-0.41748047
-0.41717529
-0.41717529
-0.41748047
-0.41748047
-0.41778564
-0.41809082
-0.41809082
-0.41809082
-0.418396
-0.418396
-0.41870117
-0.41900635
-0.41931152
-0.41992188
-0.4208374
-0.42144775
-0.42266846
-0.42358398
-0.42480469
-0.42602539
-0.42755127
-0.42877197
-0.4296875
-0.43029785
-0.4309082
-0.43121338
-0.43151855
-0.43151855
-0.4309082
-0.42999268
-0.42877197
-0.42755127
-0.42663574
-0.42572021
-0.42510986
-0.42480469
-0.42480469
-0.42419434
-0.42358398
-0.42297363
-0.42205811
-0.42144775
-0.42114258
-0.42114258
-0.42114258
-0.42114258
-0.42114258
-0.42114258
-0.42144775
-0.42175293
-0.42205811
-0.42205811
-0.42175293
-0.42114258
-0.42022705
-0.41900635
-0.41809082
-0.41748047
-0.41687012
-0.41687012
-0.41717529
-0.41748047
-0.41778564
-0.41809082
-0.41870117
-0.41900635
-0.4196167
-0.41992188
-0.41992188
-0.42022705
-0.42022705
-0.42022705
-0.42022705
-0.42022705
-0.4196167
-0.41870117
-0.41778564
-0.41656494
-0.41534424
-0.41412354
-0.41320801
-0.41229248
-0.41168213
-0.41107178
-0.41107178
-0.4107666
-0.41107178
-0.41168213
-0.41229248
-0.41351318
-0.41473389
-0.41625977
-0.41778564
-0.41931152
-0.42053223
-0.42205811
-0.42327881
-0.42419434
-0.42541504
-0.42633057
-0.42694092
-0.42755127
-0.42785645
-0.42785645
-0.42755127
-0.42694092
-0.42633057
-0.42572021
-0.42541504
-0.42480469
-0.42449951
-0.42388916
-0.42297363
-0.42205811
-0.4208374
-0.4196167
-0.418396
-0.41717529
-0.41656494
-0.41595459
-0.41564941
-0.41503906
-0.41442871
-0.41412354
-0.41442871
-0.41473389
-0.41564941
-0.41687012
-0.41809082
-0.41931152
-0.42053223
-0.42144775
-0.42236328
-0.42327881
-0.42388916
-0.42419434
-0.42419434
-0.42419434
-0.42388916
-0.42327881
-0.42266846
-0.42175293
-0.42022705
-0.41900635
-0.41717529
-0.41564941
-0.41412354
-0.41290283
-0.41168213
-0.41015625
-0.40893555
-0.40771484
-0.40679932
-0.40618896
-0.40557861
-0.40496826
-0.40466309
-0.40466309
-0.40466309
-0.40435791
-0.40435791
-0.40405273
-0.40374756
-0.40374756
-0.40405273
-0.40466309
-0.40527344
-0.40618896
-0.40710449
-0.40863037
-0.40985107
-0.41137695
-0.41259766
-0.41412354
-0.41534424
-0.41656494
-0.41809082
-0.41931152
-0.42022705
-0.4208374
-0.42114258
-0.4208374
-0.42053223
-0.41992188
-0.41931152
-0.41900635
-0.418396
-0.41778564
-0.41717529
-0.41625977
-0.41534424
-0.41442871
-0.41320801
-0.41168213
-0.41015625
-0.40863037
-0.40710449
-0.40557861
-0.40435791
-0.40283203
-0.4019165
-0.4006958
-0.3994751
-0.39825439
-0.39733887
-0.39642334
-0.39611816
-0.39550781
-0.39550781
-0.39581299
-0.39642334
-0.39733887
-0.39855957
-0.40008545
-0.40130615
-0.40252686
-0.40374756
-0.40466309
-0.40557861
-0.40618896
-0.40679932
-0.40679932
-0.40679932
-0.40618896
-0.40557861
-0.40466309
-0.40344238
-0.40222168
-0.40100098
-0.39978027
-0.39825439
-0.39703369
-0.39550781
-0.39398193
-0.39306641
-0.39215088
-0.39154053
-0.39123535
-0.390625
-0.39001465
-0.38909912
-0.38787842
-0.38635254
-0.38543701
-0.38452148
-0.38391113
-0.38360596
-0.38330078
-0.38299561
-0.38269043
-0.3817749
-0.38085938
-0.3793335
-0.37780762
-0.37658691
-0.37536621
-0.37445068
-0.37353516
-0.37261963
-0.3717041
-0.3704834
-0.36956787
-0.36834717
-0.36773682
-0.36712646
-0.36651611
-0.36682129
-0.36712646
-0.36773682
-0.36865234
-0.36987305
-0.37109375
-0.37261963
-0.37414551
-0.37536621
-0.37628174
-0.37689209
-0.37658691
-0.37567139
-0.37445068
-0.3729248
-0.37139893
-0.3692627
-0.36712646
-0.36468506
-0.36193848
-0.35919189
-0.35614014
-0.35339355
-0.35125732
-0.34942627
-0.34851074
-0.34820557
-0.34912109
-0.35095215
-0.35339355
-0.35644531
-0.35980225
-0.36315918
-0.36682129
-0.3704834
-0.37384033
-0.37719727
-0.38024902
-0.38299561
-0.38543701
-0.38757324
-0.38909912
-0.390625
-0.39154053
-0.39245605
-0.39276123
-0.39337158
-0.39337158
-0.39367676
-0.39398193
-0.39428711
-0.39459229
-0.39489746
-0.39489746
-0.39520264
-0.39520264
-0.39550781
-0.39520264
-0.39489746
-0.39459229
-0.39398193
-0.39337158
-0.39276123
-0.39215088
-0.39154053
-0.39123535
-0.390625
-0.39031982
-0.38970947
-0.38970947
-0.38970947
-0.39001465
-0.390625
-0.39154053
-0.39276123
-0.39398193
-0.39489746
-0.39611816
-0.39703369
-0.39764404
-0.39794922
-0.39794922
-0.39764404
-0.39703369
-0.39611816
-0.39489746
-0.39367676
-0.39245605
-0.39093018
-0.38970947
-0.38848877
-0.38726807
-0.38635254
-0.38543701
-0.38513184
-0.38482666
-0.38482666
-0.38543701
-0.38604736
-0.38696289
-0.38757324
-0.38818359
-0.38879395
-0.38909912
-0.3894043
-0.3894043
-0.38970947
-0.3894043
-0.38909912
-0.38879395
-0.38787842
-0.38726807
-0.38604736
-0.38513184
-0.38421631
-0.38360596
-0.38330078
-0.38330078
-0.38330078
-0.38360596
-0.38391113
-0.38421631
-0.38452148
-0.38452148
-0.38482666
-0.38513184
-0.38513184
-0.38543701
-0.38543701
-0.38543701
-0.38543701
-0.38482666
-0.38452148
-0.38360596
-0.38238525
-0.38116455
-0.37994385
-0.37872314
-0.37750244
-0.37628174
-0.37506104
-0.37353516
-0.37231445
-0.37109375
-0.36956787
-0.36804199
-0.36651611
-0.36468506
-0.362854
-0.36071777
-0.35888672
-0.35705566
-0.35522461
-0.35308838
-0.35095215
-0.34820557
-0.34484863
-0.34088135
-0.33538818
-0.32836914
-0.31982422
-0.30883789
-0.29571533
-0.27984619
-0.26062012
-0.23742676
-0.21026611
-0.17883301
-0.14343262
-0.10498047
-0.064697266
-0.023193359
0.017700195
0.057373047
0.094299316
0.12786865
0.1574707
0.18188477
0.20019531
0.21148682
0.21484375
0.20935059
0.1953125
0.17242432
0.14129639
0.10314941
0.05859375
0.0085449219
-0.045776367
-0.10314941
-0.16204834
-0.22155762
-0.28015137
-0.33691406
-0.39031982
-0.4397583
-0.48431396
-0.52368164
-0.55755615
-0.58624268
-0.60913086
-0.62652588
-0.63842773
-0.6451416
-0.64727783
-0.64483643
-0.63873291
-0.62927246
-0.61676025
-0.60211182
-0.58624268
-0.56915283
-0.55206299
-0.53466797
-0.5178833
-0.50140381
-0.48553467
-0.46966553
-0.45440674
-0.4397583
-0.42602539
-0.41351318
-0.40222168
-0.3918457
-0.38208008
-0.37322998
-0.36437988
-0.35583496
-0.34820557
-0.34088135
-0.33416748
-0.32867432
-0.3237915
-0.31982422
-0.31677246
-0.31433105
-0.31280518
-0.31188965
-0.3112793
-0.3112793
-0.31158447
-0.31219482
-0.31311035
-0.31402588
-0.31463623
-0.31463623
-0.31463623
-0.31433105
-0.3137207
-0.31280518
-0.31188965
-0.31066895
-0.30944824
-0.30822754
-0.30670166
-0.30548096
-0.30426025
-0.30303955
-0.30212402
-0.3012085
-0.30029297
-0.29968262
-0.29937744
-0.29937744
-0.29968262
-0.29998779
-0.30059814
-0.3012085
-0.30181885
-0.30273438
-0.30334473
-0.30395508
-0.30487061
-0.30548096
-0.30609131
-0.30639648
-0.30670166
-0.30670166
-0.30670166
-0.30700684
-0.30731201
-0.30792236
-0.30792236
-0.30792236
-0.30731201
-0.30609131
-0.30456543
-0.3024292
-0.30059814
-0.29846191
-0.29632568
-0.29418945
-0.29174805
-0.28961182
-0.28717041
-0.284729
-0.2822876
-0.27984619
-0.27770996
-0.27618408
-0.27496338
-0.27404785
-0.27374268
-0.27404785
-0.27435303
-0.27496338
-0.27587891
-0.27679443
-0.27801514
-0.27923584
-0.28076172
-0.28259277
-0.28411865
-0.28533936
-0.28656006
-0.28717041
-0.28747559
-0.28778076
-0.28778076
-0.28747559
-0.28686523
-0.28625488
-0.28503418
-0.28381348
-0.2822876
-0.28045654
-0.27862549
-0.27679443
-0.27496338
-0.2734375
-0.27191162
-0.27038574
-0.26916504
-0.26824951
-0.26733398
-0.26672363
-0.26641846
-0.26672363
-0.26733398
-0.26824951
-0.26947021
-0.27038574
-0.27130127
-0.2722168
-0.27282715
-0.2734375
-0.27374268
-0.27374268
-0.2734375
-0.27282715
-0.27160645
-0.27069092
-0.26916504
-0.26794434
-0.26611328
-0.26428223
-0.262146
-0.26000977
-0.25787354
-0.25604248
-0.2545166
-0.25299072
-0.2520752
-0.25115967
-0.25054932
-0.24993896
-0.24932861
-0.24841309
-0.24749756
-0.24658203
-0.2456665
-0.24505615
-0.24414062
-0.24353027
-0.2432251
-0.2432251
-0.24291992
-0.24261475
-0.24200439
-0.24078369
-0.23925781
-0.23773193
-0.23651123
-0.23498535
-0.23406982
-0.23284912
-0.23162842
-0.22979736
-0.22766113
-0.22521973
-0.2230835
-0.22064209
-0.21850586
-0.21606445
-0.21362305
-0.21087646
-0.20843506
-0.20599365
-0.20385742
-0.20172119
-0.19989014
-0.19805908
-0.19592285
-0.1940918
-0.19165039
-0.18890381
-0.18615723
-0.18280029
-0.17974854
-0.17608643
-0.17272949
-0.16937256
-0.16571045
-0.16235352
-0.15899658
-0.15563965
-0.15197754
-0.14862061
-0.14526367
-0.14190674
-0.1385498
-0.13549805
-0.13275146
-0.13031006
-0.12786865
-0.12542725
-0.12329102
-0.12115479
-0.11901855
-0.11657715
-0.11383057
-0.11108398
-0.10803223
-0.10498047
-0.10192871
-0.099182129
-0.096130371
-0.093383789
-0.090637207
-0.087585449
-0.084838867
-0.082397461
-0.079650879
-0.077209473
-0.074462891
-0.07232666
-0.07019043
-0.068054199
-0.066223145
-0.064697266
-0.063171387
-0.061950684
-0.061035156
-0.060119629
-0.059204102
-0.058288574
-0.057373047
-0.057067871
-0.056762695
-0.057067871
-0.057678223
-0.058898926
-0.061035156
-0.063476562
-0.066833496
-0.070800781
-0.075378418
-0.080566406
-0.086364746
-0.093078613
-0.10040283
-0.10864258
-0.1171875
-0.12634277
-0.13580322
-0.14556885
-0.15533447
-0.16540527
-0.17547607
-0.18554688
-0.19500732
-0.20477295
-0.21453857
-0.2243042
-0.23406982
-0.24383545
-0.2532959
-0.262146
-0.27008057
-0.27740479
-0.28442383
-0.2911377
-0.29754639
-0.3036499
-0.30975342
-0.31555176
-0.32104492
-0.32623291
-0.33111572
-0.33599854
-0.34088135
-0.34576416
-0.35095215
-0.35614014
-0.3616333
-0.36712646
-0.3729248
-0.37872314
-0.38452148
-0.39031982
-0.39642334
-0.4019165
-0.40771484
-0.41290283
-0.41778564
-0.42236328
-0.42663574
-0.4309082
-0.43426514
-0.43762207
-0.44036865
-0.44281006
-0.44464111
-0.44647217
-0.44769287
-0.44891357
-0.4498291
-0.45074463
-0.4510498
-0.4510498
-0.4510498
-0.45074463
-0.45074463
-0.45074463
-0.45074463
-0.45074463
-0.45043945
-0.45013428
-0.44921875
-0.44830322
-0.44708252
-0.44586182
-0.44464111
-0.44342041
-0.44250488
-0.44189453
-0.44128418
-0.440979
-0.44067383
-0.44006348
-0.43914795
-0.43823242
-0.43701172
-0.43609619
-0.43518066
-0.43457031
-0.43395996
-0.43365479
-0.43304443
-0.43273926
-0.43182373
-0.4309082
-0.4296875
-0.4284668
-0.42694092
-0.42572021
-0.42449951
-0.42358398
-0.42236328
-0.42144775
-0.42022705
-0.41900635
-0.41809082
-0.41717529
-0.41625977
-0.41564941
-0.41473389
-0.41412354
-0.41381836
-0.41351318
-0.41320801
-0.41320801
-0.41320801
-0.41351318
-0.41381836
-0.41412354
-0.41442871
-0.41534424
-0.41656494
-0.41809082
-0.4196167
-0.42144775
-0.42297363
-0.42388916
-0.42388916
-0.42327881
-0.42205811
-0.42053223
-0.41900635
-0.41717529
-0.41534424
-0.41320801
-0.41107178
-0.4083252
-0.40496826
-0.4019165
-0.39855957
-0.39550781
-0.39276123
-0.39001465
-0.38787842
-0.38635254
-0.38513184
-0.38421631
-0.38391113
-0.38391113
-0.38421631
-0.38452148
-0.38513184
-0.38604736
-0.38696289
-0.38757324
-0.38787842
-0.38787842
-0.38787842
-0.38757324
-0.38757324
-0.38726807
-0.38726807
-0.38726807
-0.38665771
-0.38635254
-0.38543701
-0.38421631
-0.38299561
-0.3817749
-0.3805542
-0.3793335
-0.37841797
-0.37780762
-0.37750244
-0.37750244
-0.37780762
-0.37841797
-0.37902832
-0.37963867
-0.38024902
-0.38116455
-0.38208008
-0.38299561
-0.38391113
-0.38513184
-0.38604736
-0.38696289
-0.38757324
-0.38787842
-0.38848877
-0.38879395
-0.38909912
-0.3894043
-0.38970947
-0.39001465
-0.39001465
-0.39001465
-0.39001465
-0.39001465
-0.38970947
-0.3894043
-0.38879395
-0.38879395
-0.38879395
-0.38909912
-0.38970947
-0.390625
-0.3918457
-0.39306641
-0.39367676
-0.39428711
-0.39459229
-0.39459229
-0.39459229
-0.39428711
-0.39398193
-0.39398193
-0.39428711
-0.39428711
-0.39428711
-0.39398193
-0.39337158
-0.39215088
-0.390625
-0.38909912
-0.38757324
-0.38635254
-0.38574219
-0.38543701
-0.38574219
-0.38604736
-0.38665771
-0.38757324
-0.38787842
-0.38848877
-0.38879395
-0.38909912
-0.38909912
-0.3894043
-0.38970947
-0.38970947
-0.38970947
-0.38970947
-0.3894043
-0.38909912
-0.38879395
-0.38818359
-0.38787842
-0.38726807
-0.38696289
-0.38635254
-0.38635254
-0.38635254
-0.38665771
-0.38726807
-0.38818359
-0.38879395
-0.38970947
-0.390625
-0.39123535
-0.3918457
-0.3918457
-0.3918457
-0.3918457
-0.39154053
-0.39123535
-0.39123535
-0.39093018
-0.390625
-0.39001465
-0.38970947
-0.3894043
-0.38909912
-0.38879395
-0.38879395
-0.38879395
-0.38909912
-0.3894043
-0.38970947
-0.39031982
-0.39093018
-0.3918457
-0.39245605
-0.39306641
-0.39337158
-0.39367676
-0.39367676
-0.39337158
-0.39306641
-0.39276123
-0.39215088
-0.3918457
-0.39154053
-0.39123535
-0.39093018
-0.390625
-0.39031982
-0.39001465
-0.39001465
-0.39001465
-0.39031982
-0.39093018
-0.39154053
-0.39245605
-0.39306641
-0.39367676
-0.39398193
-0.39398193
-0.39398193
-0.39337158
-0.39276123
-0.39215088
-0.39154053
-0.39093018
-0.39093018
-0.390625
-0.390625
-0.39031982
-0.39001465
-0.3894043
-0.38818359
-0.38726807
-0.38635254
-0.38604736
-0.38574219
-0.38604736
-0.38665771
-0.38696289
-0.38757324
-0.38818359
-0.38848877
-0.38879395
-0.38909912
-0.38909912
-0.3894043
-0.38970947
-0.38970947
-0.39001465
-0.39001465
-0.38970947
-0.3894043
-0.38879395
-0.38848877
-0.38787842
-0.38726807
-0.38665771
-0.38574219
-0.38482666
-0.38391113
-0.38269043
-0.3817749
-0.38116455
-0.38116455
-0.38146973
-0.38208008
-0.38330078
-0.38482666
-0.38604736
-0.38757324
-0.38879395
-0.38970947
-0.390625
-0.39093018
-0.39154053
-0.3918457
-0.39215088
-0.39215088
-0.39215088
-0.3918457
-0.39123535
-0.39031982
-0.38970947
-0.38879395
-0.38787842
-0.38696289
-0.38635254
-0.38604736
-0.38574219
-0.38513184
-0.38482666
-0.38482666
-0.38452148
-0.38452148
-0.38452148
-0.38482666
-0.38482666
-0.38513184
-0.38574219
-0.38665771
-0.38757324
-0.38818359
-0.38879395
-0.3894043
-0.3894043
-0.3894043
-0.38970947
-0.39001465
-0.39031982
-0.390625
-0.39093018
-0.39093018
-0.39093018
-0.390625
-0.39031982
-0.38970947
-0.38879395
-0.38757324
-0.38635254
-0.38513184
-0.38391113
-0.38299561
-0.38238525
-0.38208008
-0.38146973
-0.38116455
-0.3805542
-0.37994385
-0.37963867
-0.3793335
-0.37902832
-0.37872314
-0.37841797
-0.37811279
-0.37750244
-0.37689209
-0.37628174
-0.37597656
-0.37567139
-0.37536621
-0.37536621
-0.37506104
-0.37475586
-0.37475586
-0.37506104
-0.37536621
-0.37658691
-0.37811279
-0.37994385
-0.3817749
-0.38299561
-0.38421631
-0.38452148
-0.38421631
-0.38391113
-0.38330078
-0.38238525
-0.38116455
-0.37963867
-0.37780762
-0.37536621
-0.37261963
-0.3692627
-0.36560059
-0.36224365
-0.35858154
-0.35583496
-0.35308838
-0.35125732
-0.35003662
-0.34942627
-0.34912109
-0.34942627
-0.3503418
-0.3515625
-0.35308838
-0.35522461
-0.35705566
-0.35949707
-0.3616333
-0.36407471
-0.36560059
-0.36682129
-0.36743164
-0.36804199
-0.36865234
-0.36987305
-0.37109375
-0.37231445
-0.37322998
-0.37322998
-0.37261963
-0.37139893
-0.36987305
-0.36834717
-0.36651611
-0.36468506
-0.36254883
-0.3604126
-0.35827637
-0.35614014
-0.35369873
-0.35095215
-0.34851074
-0.34606934
-0.34393311
-0.34210205
-0.34118652
-0.34088135
-0.34118652
-0.34210205
-0.34332275
-0.34454346
-0.34576416
-0.34698486
-0.34851074
-0.35003662
-0.3515625
-0.35339355
-0.35491943
-0.35644531
-0.35766602
-0.35858154
-0.35949707
-0.36010742
-0.36071777
-0.3616333
-0.36254883
-0.36376953
-0.36560059
-0.36743164
-0.36987305
-0.37231445
-0.37475586
-0.37719727
-0.37994385
-0.38238525
-0.38452148
-0.38635254
-0.38818359
-0.38970947
-0.39093018
-0.3918457
-0.39276123
-0.39306641
-0.39306641
-0.39276123
-0.39215088
-0.3918457
-0.3918457
-0.39215088
-0.39276123
-0.39367676
-0.39459229
-0.39550781
-0.39611816
-0.39672852
-0.39672852
-0.39672852
-0.39642334
-0.39550781
-0.39489746
-0.39367676
-0.39215088
-0.390625
-0.38879395
-0.38696289
-0.38482666
-0.38299561
-0.38116455
-0.37963867
-0.37811279
-0.37719727
-0.37658691
-0.37628174
-0.37658691
-0.37719727
-0.37841797
-0.37963867
-0.38085938
-0.38208008
-0.38299561
-0.38391113
-0.38421631
-0.38452148
-0.38452148
-0.38452148
-0.38391113
-0.38330078
-0.38269043
-0.38208008
-0.38146973
-0.38116455
-0.38085938
-0.3805542
-0.3805542
-0.3805542
-0.38085938
-0.38146973
-0.38208008
-0.38238525
-0.38269043
-0.38330078
-0.38360596
-0.38391113
-0.38421631
-0.38452148
-0.38513184
-0.38574219
-0.38635254
-0.38665771
-0.38635254
-0.38543701
-0.38391113
-0.38208008
-0.38024902
-0.37841797
-0.37689209
-0.37536621
-0.37414551
-0.37322998
-0.37200928
-0.37078857
-0.3692627
-0.36712646
-0.36529541
-0.36315918
-0.3616333
-0.36071777
-0.36010742
-0.36010742
-0.36010742
-0.36010742
-0.36010742
-0.35980225
-0.35949707
-0.35888672
-0.35797119
-0.35644531
-0.35430908
-0.35125732
-0.34729004
-0.34179688
-0.33477783
-0.32562256
-0.31463623
-0.3012085
-0.28503418
-0.26519775
-0.24200439
-0.21392822
-0.18188477
-0.14526367
-0.10559082
-0.063781738
-0.020751953
0.021972656
0.063781738
0.10284424
0.13885498
0.17120361
0.19836426
0.21972656
0.234375
0.24169922
0.24108887
0.23162842
0.21331787
0.1864624
0.15167236
0.10986328
0.061645508
0.0082397461
-0.048522949
-0.10772705
-0.16784668
-0.22796631
-0.28656006
-0.34332275
-0.39672852
-0.44616699
-0.49102783
-0.53070068
-0.56518555
-0.59448242
-0.61828613
-0.63659668
-0.65002441
-0.65856934
-0.66223145
-0.66162109
-0.65734863
-0.64910889
-0.63751221
-0.62286377
-0.6060791
-0.58746338
-0.56762695
-0.54718018
-0.5267334
-0.50598145
-0.48583984
-0.46600342
-0.44677734
-0.4284668
-0.41137695
-0.39550781
-0.38116455
-0.36834717
-0.35705566
-0.34759521
-0.33996582
-0.3338623
-0.32989502
-0.32684326
-0.32501221
-0.32409668
-0.32348633
-0.32318115
-0.32348633
-0.32409668
-0.32501221
-0.32562256
-0.32653809
-0.32684326
-0.32714844
-0.32745361
-0.32745361
-0.32745361
-0.32714844
-0.32653809
-0.32592773
-0.32531738
-0.32501221
-0.32470703
-0.32440186
-0.32409668
-0.3237915
-0.32348633
-0.3225708
-0.32165527
-0.32043457
-0.31890869
-0.31738281
-0.31555176
-0.31402588
-0.31280518
-0.3112793
-0.31005859
-0.30822754
-0.30639648
-0.30487061
-0.30334473
-0.3024292
-0.30181885
-0.30151367
-0.3012085
-0.3012085
-0.30090332
-0.3012085
-0.3012085
-0.30151367
-0.30181885
-0.3024292
-0.30273438
-0.30303955
-0.30303955
-0.30273438
-0.3024292
-0.3024292
-0.30212402
-0.30212402
-0.3024292
-0.3024292
-0.30273438
-0.30273438
-0.30334473
-0.3036499
-0.3036499
-0.3036499
-0.3036499
-0.3036499
-0.30395508
-0.30426025
-0.30426025
-0.30426025
-0.3036499
-0.30303955
-0.30212402
-0.3012085
-0.29998779
-0.29876709
-0.29724121
-0.29571533
-0.29418945
-0.2923584
-0.29083252
-0.28930664
-0.28808594
-0.28686523
-0.28625488
-0.28594971
-0.28625488
-0.28656006
-0.28717041
-0.28808594
-0.28869629
-0.28991699
-0.29083252
-0.29205322
-0.29296875
-0.29388428
-0.29418945
-0.29418945
-0.29388428
-0.2935791
-0.29296875
-0.29266357
-0.2923584
-0.29174805
-0.2911377
-0.28991699
-0.28839111
-0.28625488
-0.28411865
-0.28198242
-0.28015137
-0.27893066
-0.27801514
-0.27740479
-0.27648926
-0.27526855
-0.27374268
-0.2722168
-0.27008057
-0.26824951
-0.26641846
-0.26489258
-0.2633667
-0.26184082
-0.26062012
-0.25939941
-0.25848389
-0.25756836
-0.25665283
-0.2557373
-0.25512695
-0.2545166
-0.25421143
-0.25421143
-0.25421143
-0.2545166
-0.25512695
-0.25543213
-0.2557373
-0.25543213
-0.25512695
-0.2545166
-0.25360107
-0.25268555
-0.25177002
-0.25024414
-0.24902344
-0.24749756
-0.24627686
-0.24505615
-0.24383545
-0.24230957
-0.24108887
-0.23925781
-0.23773193
-0.23620605
-0.23529053
-0.234375
-0.23376465
-0.23284912
-0.23162842
-0.23010254
-0.22857666
-0.22674561
-0.22460938
-0.22216797
-0.21942139
-0.2166748
-0.21331787
-0.21026611
-0.20690918
-0.20355225
-0.20050049
-0.19714355
-0.1940918
-0.19073486
-0.18737793
-0.18463135
-0.18188477
-0.17913818
-0.17700195
-0.17486572
-0.17272949
-0.17059326
-0.16815186
-0.16601562
-0.16357422
-0.16143799
-0.15869141
-0.15594482
-0.15289307
-0.14984131
-0.14678955
-0.14343262
-0.14007568
-0.13641357
-0.13244629
-0.128479
-0.12420654
-0.11993408
-0.11566162
-0.11169434
-0.10803223
-0.10437012
-0.10101318
-0.097351074
-0.093688965
-0.090026855
-0.086364746
-0.083007812
-0.079956055
-0.077209473
-0.074462891
-0.072021484
-0.069580078
-0.067443848
-0.065307617
-0.063476562
-0.061950684
-0.06072998
-0.059814453
-0.059204102
-0.059204102
-0.059204102
-0.059509277
-0.060424805
-0.061645508
-0.063171387
-0.065002441
-0.067443848
-0.07019043
-0.073242188
-0.076904297
-0.08026123
-0.084228516
-0.088195801
-0.092773438
-0.09765625
-0.10284424
-0.1083374
-0.11474609
-0.12145996
-0.12817383
-0.13549805
-0.14251709
-0.15014648
-0.15777588
-0.16601562
-0.17425537
-0.18310547
-0.19256592
-0.20233154
-0.21209717
-0.22247314
-0.2331543
-0.24383545
-0.25482178
-0.26580811
-0.27648926
-0.28717041
-0.29754639
-0.30700684
-0.31616211
-0.32440186
-0.33233643
-0.33935547
-0.34606934
-0.35217285
-0.35766602
-0.36224365
-0.36651611
-0.37017822
-0.37353516
-0.37689209
-0.38024902
-0.38391113
-0.38787842
-0.39215088
-0.39642334
-0.4006958
-0.40466309
-0.40893555
-0.41290283
-0.41717529
-0.4208374
-0.42449951
-0.42755127
-0.43029785
-0.43243408
-0.43426514
-0.43518066
-0.43579102
-0.43579102
-0.43518066
-0.43487549
-0.43426514
-0.43395996
-0.43365479
-0.43365479
-0.43365479
-0.43395996
-0.43457031
-0.43518066
-0.43640137
-0.43762207
-0.43884277
-0.44006348
-0.44128418
-0.44281006
-0.44403076
-0.44525146
-0.44616699
-0.44647217
-0.44677734
-0.44616699
-0.44555664
-0.44494629
-0.44403076
-0.44311523
-0.44189453
-0.44067383
-0.43945312
-0.43792725
-0.43670654
-0.43548584
-0.43457031
-0.43395996
-0.43365479
-0.43395996
-0.43457031
-0.43548584
-0.43609619
-0.43670654
-0.43701172
-0.43731689
-0.43731689
-0.43762207
-0.43762207
-0.43762207
-0.43731689
-0.43670654
-0.43548584
-0.43395996
-0.43182373
-0.4296875
-0.42694092
-0.42419434
-0.42114258
-0.418396
-0.41564941
-0.41320801
-0.4107666
-0.40863037
-0.40679932
-0.40527344
-0.40405273
-0.40313721
-0.40283203
-0.40252686
-0.40252686
-0.40313721
-0.40405273
-0.40496826
-0.40618896
-0.40740967
-0.40893555
-0.4107666
-0.41259766
-0.41442871
-0.41534424
-0.41595459
-0.41595459
-0.41564941
-0.41503906
-0.41412354
-0.41290283
-0.41107178
-0.40924072
-0.40710449
-0.40496826
-0.40283203
-0.4006958
-0.39855957
-0.39642334
-0.39428711
-0.39245605
-0.39093018
-0.39001465
-0.3894043
-0.38909912
-0.38909912
-0.38879395
-0.38879395
-0.38879395
-0.38879395
-0.38879395
-0.38879395
-0.38879395
-0.38879395
-0.38879395
-0.38848877
-0.38818359
-0.38787842
-0.38757324
-0.38726807
-0.38696289
-0.38635254
-0.38604736
-0.38543701
-0.38513184
-0.38452148
-0.38421631
-0.38391113
-0.38360596
-0.38330078
-0.38330078
-0.38330078
-0.38360596
-0.38391113
-0.38482666
-0.38543701
-0.38604736
-0.38665771
-0.38726807
-0.38787842
-0.38879395
-0.39001465
-0.39154053
-0.39306641
-0.39459229
-0.39581299
-0.39703369
-0.39794922
-0.39855957
-0.39886475
-0.39825439
-0.39733887
-0.39611816
-0.39459229
-0.39276123
-0.39123535
-0.38970947
-0.38787842
-0.38635254
-0.38452148
-0.38299561
-0.3817749
-0.3805542
-0.37994385
-0.37963867
-0.37994385
-0.38085938
-0.38238525
-0.38391113
-0.38604736
-0.38787842
-0.39001465
-0.3918457
-0.39367676
-0.39550781
-0.39703369
-0.39794922
-0.39855957
-0.39886475
-0.39855957
-0.39794922
-0.39733887
-0.39642334
-0.39520264
-0.39398193
-0.39306641
-0.39215088
-0.39123535
-0.390625
-0.39001465
-0.39001465
-0.38970947
-0.38970947
-0.38970947
-0.39001465
-0.39031982
-0.390625
-0.39093018
-0.39154053
-0.3918457
-0.39215088
-0.39245605
-0.39276123
-0.39306641
-0.39367676
-0.39459229
-0.39550781
-0.39642334
-0.39733887
-0.39825439
-0.39855957
-0.39886475
-0.39886475
-0.39886475
-0.39886475
-0.39855957
-0.39825439
-0.39733887
-0.39642334
-0.39550781
-0.39398193
-0.39245605
-0.39123535
-0.38970947
-0.38848877
-0.38787842
-0.38787842
-0.38818359
-0.38879395
-0.38970947
-0.39031982
-0.39093018
-0.39154053
-0.39215088
-0.39245605
-0.39276123
-0.39306641
-0.39306641
-0.39276123
-0.3918457
-0.390625
-0.38909912
-0.38726807
-0.38543701
-0.38391113
-0.38238525
-0.38116455
-0.38024902
-0.37963867
-0.3793335
-0.3793335
-0.37963867
-0.3805542
-0.38146973
-0.38269043
-0.38421631
-0.38574219
-0.38757324
-0.38909912
-0.39031982
-0.39154053
-0.39215088
-0.39306641
-0.39337158
-0.39398193
-0.39428711
-0.39459229
-0.39489746
-0.39489746
-0.39489746
-0.39459229
-0.39459229
-0.39428711
-0.39398193
-0.39398193
-0.39367676
-0.39306641
-0.39276123
-0.39215088
-0.39154053
-0.39093018
-0.39001465
-0.3894043
-0.38879395
-0.38848877
-0.38818359
-0.38848877
-0.38848877
-0.38848877
-0.38879395
-0.38909912
-0.38970947
-0.390625
-0.39154053
-0.39245605
-0.39306641
-0.39367676
-0.39367676
-0.39367676
-0.39367676
-0.39367676
-0.39367676
-0.39337158
-0.39276123
-0.39215088
-0.3918457
-0.39123535
-0.390625
-0.39031982
-0.39001465
-0.38970947
-0.3894043
-0.38970947
-0.39001465
-0.390625
-0.39154053
-0.39215088
-0.39276123
-0.39306641
-0.39306641
-0.39306641
-0.39306641
-0.39245605
-0.3918457
-0.39123535
-0.39031982
-0.38970947
-0.38909912
-0.38879395
-0.38848877
-0.38818359
-0.38757324
-0.38696289
-0.38635254
-0.38604736
-0.38574219
-0.38543701
-0.38574219
-0.38665771
-0.38818359
-0.39031982
-0.39245605
-0.39459229
-0.39581299
-0.39581299
-0.39520264
-0.39428711
-0.39306641
-0.3918457
-0.39093018
-0.39001465
-0.38879395
-0.38726807
-0.38574219
-0.38360596
-0.38116455
-0.37902832
-0.37719727
-0.37567139
-0.37475586
-0.37414551
-0.37414551
-0.37445068
-0.37567139
-0.37719727
-0.3793335
-0.3817749
-0.38421631
-0.38665771
-0.38879395
-0.390625
-0.39215088
-0.39276123
-0.39306641
-0.39276123
-0.39215088
-0.39123535
-0.39001465
-0.38848877
-0.38665771
-0.38452148
-0.38238525
-0.38024902
-0.37841797
-0.37689209
-0.37536621
-0.37475586
-0.37414551
-0.37414551
-0.37445068
-0.37506104
-0.37597656
-0.37719727
-0.37872314
-0.37963867
-0.38085938
-0.38146973
-0.38208008
-0.38238525
-0.38238525
-0.38208008
-0.38146973
-0.3805542
-0.37963867
-0.37841797
-0.37719727
-0.37567139
-0.37384033
-0.3717041
-0.36956787
-0.36743164
-0.36560059
-0.36437988
-0.36315918
-0.36224365
-0.36102295
-0.36010742
-0.35919189
-0.35827637
-0.35766602
-0.35705566
-0.35675049
-0.35644531
-0.35675049
-0.35705566
-0.35797119
-0.35919189
-0.36102295
-0.36254883
-0.36437988
-0.36590576
-0.36712646
-0.36804199
-0.36895752
-0.36956787
-0.37017822
-0.37109375
-0.37139893
-0.37200928
-0.37200928
-0.37200928
-0.37200928
-0.37139893
-0.37109375
-0.37017822
-0.3692627
-0.36773682
-0.36621094
-0.36407471
-0.36193848
-0.35980225
-0.35766602
-0.35552979
-0.35339355
-0.3515625
-0.34973145
-0.34759521
-0.34515381
-0.3427124
-0.34057617
-0.33843994
-0.33660889
-0.33508301
-0.33416748
-0.3338623
-0.33416748
-0.33477783
-0.33599854
-0.33782959
-0.33996582
-0.34240723
-0.34515381
-0.34790039
-0.35064697
-0.35308838
-0.35552979
-0.35827637
-0.36102295
-0.36407471
-0.36712646
-0.37017822
-0.3729248
-0.37567139
-0.37780762
-0.37963867
-0.38146973
-0.38299561
-0.38452148
-0.38574219
-0.38696289
-0.38818359
-0.38909912
-0.38970947
-0.390625
-0.39123535
-0.3918457
-0.39245605
-0.39337158
-0.39428711
-0.39550781
-0.39672852
-0.39764404
-0.39855957
-0.3994751
-0.39978027
-0.40039062
-0.40039062
-0.40039062
-0.40039062
-0.40008545
-0.39916992
-0.39825439
-0.39672852
-0.39489746
-0.39245605
-0.38970947
-0.38696289
-0.38360596
-0.3805542
-0.37750244
-0.37475586
-0.37261963
-0.37078857
-0.36956787
-0.36865234
-0.36865234
-0.36895752
-0.36956787
-0.3704834
-0.37200928
-0.37353516
-0.37536621
-0.37689209
-0.37872314
-0.38085938
-0.38299561
-0.38543701
-0.38787842
-0.39001465
-0.39154053
-0.39215088
-0.39215088
-0.39154053
-0.39093018
-0.39001465
-0.38879395
-0.38726807
-0.38543701
-0.38330078
-0.38116455
-0.37902832
-0.37689209
-0.37475586
-0.3729248
-0.37109375
-0.3692627
-0.36773682
-0.36651611
-0.36560059
-0.36499023
-0.36499023
-0.36529541
-0.36560059
-0.36621094
-0.36651611
-0.36712646
-0.36743164
-0.36773682
-0.36804199
-0.36804199
-0.36834717
-0.36834717
-0.36865234
-0.36834717
-0.36834717
-0.36773682
-0.36682129
-0.36560059
-0.36376953
-0.3616333
-0.35949707
-0.35705566
-0.35461426
-0.3515625
-0.34820557
-0.34393311
-0.33874512
-0.3326416
-0.32531738
-0.31616211
-0.30517578
-0.29205322
-0.27679443
-0.25909424
-0.23834229
-0.21392822
-0.18585205
-0.15350342
-0.11749268
-0.079040527
-0.038452148
0.002746582
0.043334961
0.082397461
0.11871338
0.15167236
0.18066406
0.20446777
0.22216797
0.23284912
0.23590088
0.22979736
0.21514893
0.19165039
0.15991211
0.12084961
0.075073242
0.023498535
-0.032653809
-0.092163086
-0.15289307
-0.21362305
-0.27313232
-0.3302002
-0.38391113
-0.43395996
-0.47973633
-0.52062988
-0.55664062
-0.58685303
-0.61126709
-0.63018799
-0.64300537
-0.65032959
-0.652771
-0.65093994
-0.6451416
-0.6362915
-0.625
-0.61126709
-0.59570312
-0.57830811
-0.55938721
-0.53985596
-0.51971436
-0.49957275
-0.47973633
-0.46112061
-0.44311523
-0.42633057
-0.41046143
-0.39550781
-0.38208008
-0.36956787
-0.35858154
-0.34881592
-0.340271
-0.33294678
-0.32714844
-0.3225708
-0.31921387
-0.31677246
-0.31555176
-0.31524658
-0.31524658
-0.31585693
-0.31646729
-0.31768799
-0.31890869
-0.32043457
-0.32196045
-0.32348633
-0.32501221
-0.32623291
-0.32714844
-0.32745361
-0.32745361
-0.32684326
-0.32592773
-0.32470703
-0.32348633
-0.32226562
-0.32073975
-0.31921387
-0.31768799
-0.31616211
-0.31433105
-0.31280518
-0.31097412
-0.30944824
-0.30792236
-0.30639648
-0.30548096
-0.30456543
-0.3036499
-0.30334473
-0.30334473
-0.3036499
-0.30426025
-0.30517578
-0.30639648
-0.30792236
-0.30914307
-0.31036377
-0.31158447
-0.3125
-0.31341553
-0.3137207
-0.3137207
-0.31341553
-0.31280518
-0.3112793
-0.30975342
-0.30792236
-0.30578613
-0.30303955
-0.30029297
-0.29724121
-0.29418945
-0.29144287
-0.28900146
-0.28686523
-0.28533936
-0.28411865
-0.28320312
-0.28289795
-0.2835083
-0.28411865
-0.28564453
-0.28778076
-0.29022217
-0.29327393
-0.29632568
-0.29937744
-0.30212402
-0.30395508
-0.30517578
-0.30517578
-0.30487061
-0.30426025
-0.30303955
-0.3012085
-0.29907227
-0.29663086
-0.2935791
-0.29022217
-0.28625488
-0.28198242
-0.27801514
-0.27435303
-0.27099609
-0.26794434
-0.26580811
-0.2645874
-0.26367188
-0.26367188
-0.26428223
-0.26519775
-0.26641846
-0.26763916
-0.26855469
-0.26977539
-0.27099609
-0.2722168
-0.2734375
-0.27404785
-0.2746582
-0.27496338
-0.27496338
-0.27496338
-0.2746582
-0.27404785
-0.2734375
-0.27282715
-0.27191162
-0.27099609
-0.26977539
-0.26885986
-0.26794434
-0.26733398
-0.26702881
-0.26672363
-0.26641846
-0.26611328
-0.26550293
-0.2645874
-0.26397705
-0.26306152
-0.262146
-0.26153564
-0.26062012
-0.26000977
-0.25939941
-0.25909424
-0.25909424
-0.25878906
-0.25787354
-0.25665283
-0.25512695
-0.2532959
-0.25115967
-0.24963379
-0.24810791
-0.24688721
-0.2456665
-0.2444458
-0.24261475
-0.24047852
-0.23803711
-0.2355957
-0.23284912
-0.23071289
-0.22857666
-0.22674561
-0.22491455
-0.2230835
-0.22125244
-0.21942139
-0.21759033
-0.21606445
-0.2142334
-0.21209717
-0.20965576
-0.20721436
-0.20507812
-0.20324707
-0.20172119
-0.20019531
-0.19805908
-0.19561768
-0.19287109
-0.19012451
-0.18707275
-0.18432617
-0.18127441
-0.17883301
-0.17608643
-0.17364502
-0.17089844
-0.16815186
-0.1651001
-0.16235352
-0.15930176
-0.15625
-0.15380859
-0.15106201
-0.14892578
-0.14648438
-0.14404297
-0.14190674
-0.13916016
-0.13641357
-0.13366699
-0.13092041
-0.12817383
-0.12512207
-0.12207031
-0.11871338
-0.11535645
-0.11169434
-0.1083374
-0.10467529
-0.10131836
-0.09765625
-0.094604492
-0.09185791
-0.089111328
-0.086669922
-0.084533691
-0.082092285
-0.079956055
-0.077819824
-0.07598877
-0.074462891
-0.073242188
-0.07232666
-0.071411133
-0.070495605
-0.069885254
-0.068969727
-0.068359375
-0.067443848
-0.06652832
-0.065612793
-0.064697266
-0.064086914
-0.063476562
-0.063476562
-0.063781738
-0.06439209
-0.065307617
-0.06652832
-0.068359375
-0.07019043
-0.07232666
-0.075378418
-0.079345703
-0.08392334
-0.088806152
-0.094299316
-0.10009766
-0.10650635
-0.11291504
-0.11993408
-0.1272583
-0.1348877
-0.14282227
-0.15106201
-0.15960693
-0.16784668
-0.17578125
-0.18341064
-0.19042969
-0.19714355
-0.20385742
-0.21057129
-0.21728516
-0.22399902
-0.23101807
-0.23834229
-0.2456665
-0.2532959
-0.26092529
-0.26855469
-0.27618408
-0.28381348
-0.29174805
-0.29998779
-0.30822754
-0.31677246
-0.32531738
-0.33416748
-0.34240723
-0.3503418
-0.35766602
-0.36437988
-0.3704834
-0.37597656
-0.38116455
-0.38604736
-0.390625
-0.39489746
-0.39886475
-0.40252686
-0.40588379
-0.40924072
-0.41229248
-0.41503906
-0.41748047
-0.4196167
-0.42175293
-0.42419434
-0.42663574
-0.42938232
-0.43243408
-0.43548584
-0.43823242
-0.44067383
-0.44219971
-0.44311523
-0.44311523
-0.44311523
-0.44311523
-0.44311523
-0.44281006
-0.44250488
-0.44219971
-0.44128418
-0.4397583
-0.43762207
-0.43548584
-0.43334961
-0.43121338
-0.42938232
-0.42816162
-0.42694092
-0.42633057
-0.42602539
-0.42602539
-0.42633057
-0.42724609
-0.4284668
-0.42938232
-0.43029785
-0.43121338
-0.43182373
-0.43273926
-0.43334961
-0.43426514
-0.43518066
-0.43609619
-0.43701172
-0.43762207
-0.43823242
-0.43792725
-0.43762207
-0.43701172
-0.43640137
-0.43548584
-0.43457031
-0.43365479
-0.43243408
-0.43060303
-0.42877197
-0.42633057
-0.42419434
-0.42175293
-0.41992188
-0.41809082
-0.41625977
-0.41473389
-0.41320801
-0.41137695
-0.40985107
-0.40771484
-0.40618896
-0.40435791
-0.40313721
-0.4019165
-0.40130615
-0.40039062
-0.39978027
-0.39916992
-0.39886475
-0.39825439
-0.39794922
-0.39764404
-0.39733887
-0.39703369
-0.39642334
-0.39611816
-0.39581299
-0.39581299
-0.39581299
-0.39581299
-0.39611816
-0.39642334
-0.39642334
-0.39642334
-0.39611816
-0.39581299
-0.39550781
-0.39550781
-0.39581299
-0.39581299
-0.39581299
-0.39550781
-0.39459229
-0.39367676
-0.39306641
-0.39276123
-0.39245605
-0.39245605
-0.39215088
-0.39154053
-0.390625
-0.38970947
-0.38879395
-0.38787842
-0.38696289
-0.38635254
-0.38574219
-0.38513184
-0.38391113
-0.38269043
-0.38146973
-0.38024902
-0.3793335
-0.37872314
-0.37841797
-0.37841797
-0.37841797
-0.37811279
-0.37811279
-0.37780762
-0.37780762
-0.37811279
-0.37872314
-0.37963867
-0.3805542
-0.38208008
-0.38360596
-0.38543701
-0.38757324
-0.3894043
-0.39154053
-0.39337158
-0.39550781
-0.39733887
-0.39916992
-0.40130615
-0.40283203
-0.40344238
-0.40374756
-0.40283203
-0.40161133
-0.40008545
-0.39794922
-0.39581299
-0.39367676
-0.39154053
-0.38970947
-0.38757324
-0.38604736
-0.38452148
-0.38330078
-0.38208008
-0.38116455
-0.3805542
-0.3805542
-0.38085938
-0.3817749
-0.38269043
-0.38330078
-0.38421631
-0.38482666
-0.38513184
-0.38543701
-0.38543701
-0.38513184
-0.38482666
-0.38391113
-0.38330078
-0.38269043
-0.38238525
-0.38208008
-0.38238525
-0.38269043
-0.38299561
-0.38330078
-0.38360596
-0.38421631
-0.38482666
-0.38543701
-0.38604736
-0.38665771
-0.38665771
-0.38635254
-0.38543701
-0.38452148
-0.38330078
-0.38238525
-0.3817749
-0.38116455
-0.38085938
-0.38085938
-0.38116455
-0.38116455
-0.38116455
-0.38146973
-0.3817749
-0.38208008
-0.38269043
-0.38299561
-0.38330078
-0.38360596
-0.38360596
-0.38360596
-0.38360596
-0.38299561
-0.38269043
-0.38208008
-0.38146973
-0.38116455
-0.3805542
-0.37994385
-0.37963867
-0.3793335
-0.3793335
-0.3793335
-0.3793335
-0.37963867
-0.37994385
-0.3805542
-0.38085938
-0.38116455
-0.38146973
-0.3817749
-0.38238525
-0.38330078
-0.38391113
-0.38482666
-0.38574219
-0.38665771
-0.38726807
-0.38787842
-0.38848877
-0.3894043
-0.39001465
-0.39093018
-0.39154053
-0.39245605
-0.39337158
-0.39428711
-0.39550781
-0.39642334
-0.39672852
-0.39642334
-0.39520264
-0.39367676
-0.3918457
-0.39001465
-0.38818359
-0.38696289
-0.38543701
-0.38452148
-0.38330078
-0.38238525
-0.38116455
-0.37994385
-0.37841797
-0.37719727
-0.37597656
-0.37506104
-0.37475586
-0.37475586
-0.37475586
-0.37536621
-0.37567139
-0.37597656
-0.37628174
-0.37628174
-0.37628174
-0.37628174
-0.37597656
-0.37567139
-0.37506104
-0.37475586
-0.37445068
-0.37414551
-0.37414551
-0.37384033
-0.37353516
-0.37353516
-0.37384033
-0.37414551
-0.37506104
-0.37658691
-0.37841797
-0.3805542
-0.38238525
-0.38391113
-0.38452148
-0.38482666
-0.38482666
-0.38452148
-0.38421631
-0.38360596
-0.38299561
-0.38208008
-0.38116455
-0.37994385
-0.37841797
-0.37658691
-0.37475586
-0.3729248
-0.37139893
-0.36987305
-0.3692627
-0.36895752
-0.36895752
-0.36956787
-0.37078857
-0.37200928
-0.37384033
-0.37567139
-0.37780762
-0.37994385
-0.38208008
-0.38360596
-0.38513184
-0.38635254
-0.38757324
-0.38818359
-0.38818359
-0.38787842
-0.38665771
-0.38513184
-0.38299561
-0.3805542
-0.37811279
-0.37567139
-0.37353516
-0.37109375
-0.36895752
-0.36682129
-0.36499023
-0.36315918
-0.3616333
-0.36102295
-0.36071777
-0.36102295
-0.3616333
-0.36224365
-0.362854
-0.36346436
-0.36407471
-0.36468506
-0.36529541
-0.36560059
-0.36560059
-0.36560059
-0.36529541
-0.36499023
-0.36468506
-0.36376953
-0.362854
-0.3616333
-0.3604126
-0.35949707
-0.35858154
-0.35827637
-0.35797119
-0.35827637
-0.35888672
-0.35949707
-0.36010742
-0.36102295
-0.3616333
-0.36224365
-0.362854
-0.36376953
-0.36468506
-0.36621094
-0.36743164
-0.36834717
-0.36895752
-0.36865234
-0.36834717
-0.36773682
-0.36651611
-0.36499023
-0.362854
-0.3604126
-0.35736084
-0.35400391
-0.35095215
-0.34759521
-0.34423828
-0.34088135
-0.33782959
-0.33508301
-0.3326416
-0.33081055
-0.32928467
-0.32867432
-0.32836914
-0.32836914
-0.32928467
-0.3302002
-0.3314209
-0.33294678
-0.33416748
-0.33538818
-0.33630371
-0.33691406
-0.33782959
-0.33843994
-0.33935547
-0.33996582
-0.340271
-0.34057617
-0.34057617
-0.340271
-0.33966064
-0.33905029
-0.33843994
-0.33782959
-0.33721924
-0.33691406
-0.33630371
-0.33538818
-0.33447266
-0.33355713
-0.33203125
-0.33050537
-0.32897949
-0.32714844
-0.32501221
-0.32318115
-0.32104492
-0.31951904
-0.31799316
-0.31677246
-0.31585693
-0.31524658
-0.31463623
-0.31433105
-0.31433105
-0.31463623
-0.31494141
-0.31585693
-0.31707764
-0.31860352
-0.32043457
-0.3225708
-0.32501221
-0.32775879
-0.33050537
-0.33355713
-0.33691406
-0.34057617
-0.34423828
-0.34790039
-0.35186768
-0.35552979
-0.35919189
-0.36254883
-0.36560059
-0.36773682
-0.36956787
-0.37078857
-0.37200928
-0.37322998
-0.37445068
-0.37597656
-0.37780762
-0.37902832
-0.37994385
-0.37994385
-0.37902832
-0.37780762
-0.37628174
-0.37506104
-0.37384033
-0.37261963
-0.37139893
-0.36987305
-0.36804199
-0.36590576
-0.36376953
-0.36102295
-0.35858154
-0.35644531
-0.35430908
-0.3527832
-0.35186768
-0.35125732
-0.3515625
-0.35247803
-0.35400391
-0.35614014
-0.35827637
-0.3604126
-0.362854
-0.36499023
-0.36712646
-0.36865234
-0.37017822
-0.37109375
-0.3717041
-0.3717041
-0.37109375
-0.37017822
-0.36895752
-0.36712646
-0.36560059
-0.36376953
-0.36224365
-0.36071777
-0.35949707
-0.35858154
-0.35736084
-0.35644531
-0.35583496
-0.35552979
-0.35491943
-0.35491943
-0.35491943
-0.35491943
-0.35522461
-0.35522461
-0.35491943
-0.35430908
-0.35339355
-0.35217285
-0.35125732
-0.35003662
-0.34881592
-0.34790039
-0.34729004
-0.34667969
-0.34637451
-0.34667969
-0.34698486
-0.34759521
-0.34851074
-0.34942627
-0.3503418
-0.35064697
-0.35095215
-0.35095215
-0.35064697
-0.35064697
-0.35064697
-0.3503418
-0.34942627
-0.34820557
-0.34637451
-0.34362793
-0.34057617
-0.33721924
-0.3338623
-0.33050537
-0.32714844
-0.3237915
-0.32012939
-0.31585693
-0.31036377
-0.3036499
-0.29571533
-0.28564453
-0.2734375
-0.25878906
-0.24108887
-0.21942139
-0.19348145
-0.16296387
-0.12817383
-0.08972168
-0.048217773
-0.0051879883
0.0390625
0.082397461
0.12451172
0.16387939
0.19927979
0.23010254
0.25512695
0.2734375
0.28442383
0.28656006
0.27954102
0.2633667
0.23773193
0.20355225
0.16113281
0.11169434
0.05645752
-0.0030517578
-0.065917969
-0.13092041
-0.1965332
-0.26123047
-0.32318115
-0.38146973
-0.43548584
-0.48461914
-0.52825928
-0.56610107
-0.59783936
-0.62316895
-0.64178467
-0.65338135
-0.65887451
-0.65826416
-0.65216064
-0.64147949
-0.62683105
-0.60882568
-0.58807373
-0.56488037
-0.54016113
-0.51452637
-0.4888916
-0.46356201
-0.43914795
-0.41625977
-0.39489746
-0.37567139
-0.35858154
-0.34332275
-0.3302002
-0.31921387
-0.31036377
-0.3036499
-0.29846191
-0.2947998
-0.2923584
-0.29052734
-0.28961182
-0.28930664
-0.28961182
-0.29052734
-0.29174805
-0.29296875
-0.29418945
-0.29541016
-0.29602051
-0.29632568
-0.29663086
-0.29632568
-0.29602051
-0.29571533
-0.29510498
-0.29449463
-0.29388428
-0.29296875
-0.2923584
-0.29144287
-0.29052734
-0.28961182
-0.28900146
-0.28808594
-0.28717041
-0.28656006
-0.28564453
-0.28442383
-0.2835083
-0.28259277
-0.28137207
-0.28045654
-0.27923584
-0.27832031
-0.27709961
-0.27618408
-0.27526855
-0.2746582
-0.27404785
-0.2734375
-0.27313232
-0.27282715
-0.27252197
-0.2722168
-0.27191162
-0.27160645
-0.27130127
-0.27099609
-0.27099609
-0.27099609
-0.27099609
-0.27130127
-0.27160645
-0.27160645
-0.27191162
-0.2722168
-0.27252197
-0.27282715
-0.27313232
-0.2734375
-0.2734375
-0.27374268
-0.27374268
-0.27404785
-0.27404785
-0.27374268
-0.27374268
-0.2734375
-0.27282715
-0.2722168
-0.27160645
-0.27069092
-0.27008057
-0.26916504
-0.26794434
-0.26672363
-0.26550293
-0.26428223
-0.26306152
-0.26184082
-0.26123047
-0.26062012
-0.26000977
-0.25970459
-0.25909424
-0.25848389
-0.25787354
-0.25726318
-0.25665283
-0.25604248
-0.2557373
-0.25543213
-0.25512695
-0.25482178
-0.2545166
-0.25390625
-0.2532959
-0.25238037
-0.25146484
-0.25054932
-0.24932861
-0.24841309
-0.24719238
-0.24597168
-0.2444458
-0.24291992
-0.24169922
-0.24078369
-0.23986816
-0.23895264
-0.23834229
-0.23773193
-0.23742676
-0.23712158
-0.23712158
-0.23773193
-0.23834229
-0.23925781
-0.24017334
-0.24108887
-0.24200439
-0.24291992
-0.24383545
-0.2444458
-0.24475098
-0.24475098
-0.2444458
-0.24414062
-0.24291992
-0.24139404
-0.23895264
-0.23620605
-0.2331543
-0.22979736
-0.22674561
-0.22369385
-0.22094727
-0.21850586
-0.21606445
-0.21392822
-0.21270752
-0.21240234
-0.2130127
-0.21453857
-0.2166748
-0.21850586
-0.22003174
-0.22094727
-0.22125244
-0.22186279
-0.22216797
-0.22247314
-0.22216797
-0.22125244
-0.21911621
-0.21606445
-0.21179199
-0.20629883
-0.19958496
-0.19287109
-0.18585205
-0.17913818
-0.17303467
-0.16693115
-0.16174316
-0.15686035
-0.15228271
-0.14831543
-0.1449585
-0.14190674
-0.14007568
-0.13885498
-0.13793945
-0.13793945
-0.13824463
-0.13885498
-0.13946533
-0.14007568
-0.14068604
-0.14129639
-0.14129639
-0.14099121
-0.14007568
-0.1385498
-0.13671875
-0.13427734
-0.13122559
-0.12786865
-0.12420654
-0.11993408
-0.11535645
-0.11047363
-0.10528564
-0.10009766
-0.094909668
-0.08972168
-0.084838867
-0.08026123
-0.07598877
-0.072021484
-0.068664551
-0.065612793
-0.063171387
-0.061035156
-0.059204102
-0.057678223
-0.05645752
-0.055847168
-0.055236816
-0.054626465
-0.054626465
-0.054321289
-0.054321289
-0.054016113
-0.05279541
-0.051269531
-0.049438477
-0.047302246
-0.045166016
-0.042419434
-0.039672852
-0.03692627
-0.034179688
-0.03112793
-0.027770996
-0.024719238
-0.02166748
-0.018920898
-0.016784668
-0.015258789
-0.014343262
-0.014648438
-0.015869141
-0.018005371
-0.020751953
-0.024414062
-0.028381348
-0.03326416
-0.038757324
-0.04486084
-0.051269531
-0.057983398
-0.065307617
-0.072937012
-0.08026123
-0.087890625
-0.09552002
-0.10314941
-0.11108398
-0.11901855
-0.1272583
-0.13549805
-0.14404297
-0.15289307
-0.16143799
-0.17028809
-0.17913818
-0.18768311
-0.19622803
-0.20477295
-0.2130127
-0.22155762
-0.23010254
-0.23864746
-0.24719238
-0.25543213
-0.26397705
-0.2722168
-0.28045654
-0.28839111
-0.29602051
-0.30303955
-0.30975342
-0.31616211
-0.32226562
-0.32775879
-0.33325195
-0.33874512
-0.34362793
-0.34820557
-0.35247803
-0.35644531
-0.36010742
-0.36315918
-0.36590576
-0.36834717
-0.37078857
-0.37322998
-0.37567139
-0.37841797
-0.38146973
-0.38421631
-0.38696289
-0.3894043
-0.39123535
-0.39306641
-0.39489746
-0.39642334
-0.39764404
-0.39886475
-0.39978027
-0.4006958
-0.40161133
-0.40283203
-0.40374756
-0.40466309
-0.40527344
-0.40557861
-0.40527344
-0.40466309
-0.40435791
-0.40374756
-0.40313721
-0.40222168
-0.40100098
-0.3994751
-0.39764404
-0.39611816
-0.39459229
-0.39306641
-0.39154053
-0.39001465
-0.38879395
-0.38726807
-0.38574219
-0.38482666
-0.38421631
-0.38421631
-0.38452148
-0.38543701
-0.38635254
-0.38726807
-0.38818359
-0.38848877
-0.38848877
-0.38787842
-0.38696289
-0.38604736
-0.38452148
-0.38330078
-0.3817749
-0.38024902
-0.37902832
-0.37750244
-0.37658691
-0.37567139
-0.37536621
-0.37506104
-0.37506104
-0.37506104
-0.37475586
-0.37445068
-0.37414551
-0.37384033
-0.37384033
-0.37414551
-0.37445068
-0.37445068
-0.37414551
-0.37353516
-0.37261963
-0.37139893
-0.36956787
-0.36804199
-0.36621094
-0.36468506
-0.36376953
-0.36254883
-0.36193848
-0.3616333
-0.36132812
-0.36102295
-0.36102295
-0.36102295
-0.36102295
-0.36132812
-0.3616333
-0.36193848
-0.36193848
-0.36193848
-0.36193848
-0.36193848
-0.36193848
-0.36224365
-0.36224365
-0.36254883
-0.36315918
-0.36346436
-0.36407471
-0.36437988
-0.36437988
-0.36407471
-0.36315918
-0.36254883
-0.3616333
-0.3604126
-0.35949707
-0.35827637
-0.35675049
-0.35522461
-0.35369873
-0.35186768
-0.35003662
-0.34820557
-0.34637451
-0.34454346
-0.34332275
-0.34240723
-0.34210205
-0.34240723
-0.34332275
-0.34423828
-0.34484863
-0.34545898
-0.34606934
-0.34698486
-0.34820557
-0.34942627
-0.35095215
-0.35217285
-0.3527832
-0.3527832
-0.35247803
-0.35217285
-0.3515625
-0.35095215
-0.35003662
-0.34881592
-0.34759521
-0.34637451
-0.34515381
-0.34423828
-0.34332275
-0.3427124
-0.34240723
-0.34210205
-0.34179688
-0.34179688
-0.34210205
-0.34240723
-0.34240723
-0.3427124
-0.34301758
-0.34301758
-0.34332275
-0.34362793
-0.34362793
-0.34362793
-0.34332275
-0.34332275
-0.34301758
-0.34301758
-0.34301758
-0.34301758
-0.34332275
-0.34362793
-0.34423828
-0.34484863
-0.34545898
-0.34637451
-0.34698486
-0.34759521
-0.34790039
-0.34851074
-0.34881592
-0.34912109
-0.34942627
-0.34942627
-0.34942627
-0.34942627
-0.34912109
-0.34851074
-0.34790039
-0.34729004
-0.34667969
-0.34606934
-0.34545898
-0.34515381
-0.34484863
-0.34484863
-0.34484863
-0.34515381
-0.34576416
-0.34606934
-0.34667969
-0.34729004
-0.34790039
-0.34881592
-0.34942627
-0.3503418
-0.35125732
-0.35186768
-0.35247803
-0.3527832
-0.35339355
-0.35369873
-0.35400391
-0.35400391
-0.35430908
-0.35430908
-0.35430908
-0.35430908
-0.35430908
-0.35461426
-0.35491943
-0.35522461
-0.35583496
-0.35614014
-0.35614014
-0.35583496
-0.35552979
-0.35491943
-0.35461426
-0.35400391
-0.35339355
-0.3527832
-0.35186768
-0.35095215
-0.35003662
-0.34912109
-0.34820557
-0.34759521
-0.34759521
-0.34759521
-0.34790039
-0.34820557
-0.34881592
-0.34973145
-0.3503418
-0.35095215
-0.35125732
-0.3515625
-0.3515625
-0.3515625
-0.35064697
-0.34973145
-0.34790039
-0.34606934
-0.34393311
-0.34179688
-0.33966064
-0.33752441
-0.33599854
-0.33447266
-0.33325195
-0.3326416
-0.33233643
-0.3326416
-0.33325195
-0.33416748
-0.33569336
-0.33721924
-0.33905029
-0.34057617
-0.34240723
-0.34393311
-0.34545898
-0.34667969
-0.34759521
-0.34851074
-0.34881592
-0.34942627
-0.34942627
-0.34973145
-0.34973145
-0.34942627
-0.34942627
-0.34942627
-0.34942627
-0.34942627
-0.34942627
-0.34942627
-0.34973145
-0.34973145
-0.34973145
-0.34973145
-0.35003662
-0.35003662
-0.34973145
-0.34942627
-0.34912109
-0.34881592
-0.34851074
-0.34881592
-0.34912109
-0.35003662
-0.35095215
-0.35186768
-0.35247803
-0.35308838
-0.35400391
-0.35522461
-0.35644531
-0.35797119
-0.35919189
-0.3604126
-0.36102295
-0.36071777
-0.35919189
-0.35736084
-0.35491943
-0.35247803
-0.34942627
-0.34606934
-0.34240723
-0.33843994
-0.33416748
-0.32989502
-0.32592773
-0.32196045
-0.31829834
-0.31494141
-0.31219482
-0.30944824
-0.30700684
-0.30487061
-0.30303955
-0.30181885
-0.3012085
-0.30090332
-0.3012085
-0.30181885
-0.30273438
-0.30334473
-0.30395508
-0.30456543
-0.30517578
-0.30578613
-0.30670166
-0.30761719
-0.30853271
-0.30944824
-0.31036377
-0.31097412
-0.31097412
-0.31097412
-0.31066895
-0.31005859
-0.30914307
-0.30792236
-0.30639648
-0.30487061
-0.3036499
-0.3024292
-0.30151367
-0.30090332
-0.30059814
-0.30029297
-0.29998779
-0.29998779
-0.29998779
-0.29998779
-0.30029297
-0.30059814
-0.3012085
-0.30181885
-0.30212402
-0.3024292
-0.30273438
-0.30273438
-0.30273438
-0.3024292
-0.30212402
-0.30151367
-0.30090332
-0.30029297
-0.29998779
-0.29998779
-0.30029297
-0.30090332
-0.30212402
-0.30395508
-0.30609131
-0.30883789
-0.31158447
-0.31494141
-0.31860352
-0.3225708
-0.32684326
-0.33081055
-0.33477783
-0.33813477
-0.34118652
-0.34393311
-0.34698486
-0.35003662
-0.35308838
-0.35552979
-0.35736084
-0.35858154
-0.35888672
-0.35858154
-0.35797119
-0.35705566
-0.35614014
-0.35522461
-0.35430908
-0.35339355
-0.35247803
-0.35186768
-0.35125732
-0.35095215
-0.35064697
-0.35064697
-0.35125732
-0.35217285
-0.35308838
-0.35400391
-0.35522461
-0.35614014
-0.35705566
-0.35797119
-0.35919189
-0.36071777
-0.36224365
-0.36346436
-0.36407471
-0.36407471
-0.36346436
-0.362854
-0.3616333
-0.3604126
-0.35919189
-0.35766602
-0.35644531
-0.35522461
-0.35369873
-0.35247803
-0.35125732
-0.35003662
-0.34912109
-0.34851074
-0.34790039
-0.34759521
-0.34729004
-0.34698486
-0.34667969
-0.34637451
-0.34637451
-0.34637451
-0.34667969
-0.34667969
-0.34698486
-0.34759521
-0.34820557
-0.34881592
-0.34973145
-0.35064697
-0.35125732
-0.3515625
-0.3515625
-0.35125732
-0.35064697
-0.3503418
-0.34973145
-0.34942627
-0.34881592
-0.34820557
-0.34729004
-0.34637451
-0.34515381
-0.34423828
-0.34332275
-0.3427124
-0.34240723
-0.34210205
-0.34210205
-0.34240723
-0.34332275
-0.34454346
-0.34606934
-0.34790039
-0.34942627
-0.3503418
-0.3503418
-0.35003662
-0.34881592
-0.34759521
-0.34606934
-0.34454346
-0.3427124
-0.34118652
-0.33935547
-0.33721924
-0.33508301
-0.33294678
-0.33081055
-0.32867432
-0.32592773
-0.32348633
-0.32043457
-0.31677246
-0.3125
-0.30670166
-0.29907227
-0.28930664
-0.27709961
-0.26153564
-0.24291992
-0.22003174
-0.19256592
-0.16113281
-0.12542725
-0.086669922
-0.046081543
-0.0042724609
0.037231445
0.077819824
0.1159668
0.15075684
0.18157959
0.20690918
0.22644043
0.23895264
0.24383545
0.24078369
0.22949219
0.20996094
0.18310547
0.14892578
0.10803223
0.061645508
0.010375977
-0.044555664
-0.10162354
-0.15960693
-0.21697998
-0.27313232
-0.32684326
-0.37750244
-0.42449951
-0.46722412
-0.50537109
-0.53833008
-0.5657959
-0.58776855
-0.60424805
-0.61523438
-0.62164307
-0.62316895
-0.62011719
-0.6137085
-0.60333252
-0.59020996
-0.574646
-0.55664062
-0.53741455
-0.51696777
-0.49591064
-0.47546387
-0.45532227
-0.43640137
-0.41900635
-0.40313721
-0.38848877
-0.37506104
-0.362854
-0.35125732
-0.34088135
-0.33172607
-0.32348633
-0.31677246
-0.31097412
-0.30639648
-0.30273438
-0.29968262
-0.29724121
-0.29541016
-0.2935791
-0.29205322
-0.29083252
-0.28991699
-0.28900146
-0.28808594
-0.28717041
-0.28656006
-0.28594971
-0.28564453
-0.28533936
-0.28533936
-0.28503418
-0.284729
-0.28411865
-0.28320312
-0.2822876
-0.28137207
-0.28076172
-0.28045654
-0.28076172
-0.28076172
-0.28106689
-0.28106689
-0.28137207
-0.28137207
-0.28106689
-0.28076172
-0.28015137
-0.27954102
-0.27862549
-0.27770996
-0.27679443
-0.27587891
-0.27526855
-0.2746582
-0.27374268
-0.27313232
-0.2722168
-0.27130127
-0.27008057
-0.26916504
-0.26824951
-0.26763916
-0.26733398
-0.26733398
-0.26702881
-0.26672363
-0.26641846
-0.26611328
-0.26580811
-0.26580811
-0.26519775
-0.26489258
-0.26428223
-0.26367188
-0.26306152
-0.262146
-0.26153564
-0.26092529
-0.26000977
-0.25939941
-0.25817871
-0.25665283
-0.25512695
-0.2532959
-0.25115967
-0.24932861
-0.24749756
-0.24597168
-0.2444458
-0.2432251
-0.24230957
-0.24169922
-0.24108887
-0.24078369
-0.24047852
-0.24017334
-0.24047852
-0.24078369
-0.24139404
-0.24230957
-0.2432251
-0.24414062
-0.24505615
-0.24597168
-0.24658203
-0.24688721
-0.24719238
-0.24688721
-0.24627686
-0.2456665
-0.24505615
-0.24414062
-0.24291992
-0.24169922
-0.24047852
-0.23895264
-0.23773193
-0.23681641
-0.23590088
-0.23498535
-0.234375
-0.23376465
-0.2331543
-0.23254395
-0.23193359
-0.23132324
-0.23101807
-0.23040771
-0.23040771
-0.23010254
-0.23010254
-0.23010254
-0.23010254
-0.23010254
-0.22979736
-0.22949219
-0.22918701
-0.22918701
-0.22857666
-0.22796631
-0.22705078
-0.22613525
-0.2255249
-0.22491455
-0.22460938
-0.2243042
-0.22338867
-0.22216797
-0.22064209
-0.21850586
-0.2166748
-0.21484375
-0.2130127
-0.21148682
-0.20996094
-0.20843506
-0.20721436
-0.20568848
-0.20446777
-0.20324707
-0.20172119
-0.20019531
-0.19836426
-0.1965332
-0.19500732
-0.19348145
-0.19195557
-0.19073486
-0.18920898
-0.18737793
-0.1852417
-0.18341064
-0.18127441
-0.17944336
-0.1776123
-0.17608643
-0.1751709
-0.17425537
-0.17364502
-0.17272949
-0.17211914
-0.17120361
-0.16967773
-0.16845703
-0.16662598
-0.16479492
-0.16265869
-0.16021729
-0.1574707
-0.1550293
-0.15197754
-0.14892578
-0.14587402
-0.14221191
-0.1385498
-0.1348877
-0.13092041
-0.1272583
-0.12359619
-0.12023926
-0.1171875
-0.11444092
-0.11199951
-0.10955811
-0.10742188
-0.10528564
-0.10314941
-0.10162354
-0.10040283
-0.099487305
-0.098876953
-0.098266602
-0.097351074
-0.096130371
-0.093994141
-0.091552734
-0.088806152
-0.085754395
-0.082092285
-0.078735352
-0.074768066
-0.070495605
-0.065917969
-0.061035156
-0.055541992
-0.050048828
-0.044555664
-0.039367676
-0.034484863
-0.029907227
-0.025939941
-0.022277832
-0.01953125
-0.01739502
-0.015869141
-0.014953613
-0.014648438
-0.014648438
-0.014953613
-0.015869141
-0.017089844
-0.018920898
-0.021057129
-0.023193359
-0.025939941
-0.029296875
-0.032653809
-0.036010742
-0.039672852
-0.043640137
-0.047912598
-0.05279541
-0.05859375
-0.064697266
-0.071716309
-0.078735352
-0.085754395
-0.093078613
-0.10040283
-0.1083374
-0.11627197
-0.12481689
-0.13336182
-0.14251709
-0.15167236
-0.16082764
-0.16998291
-0.17913818
-0.18798828
-0.19683838
-0.2053833
-0.21362305
-0.22155762
-0.22918701
-0.23681641
-0.24383545
-0.25115967
-0.25787354
-0.26489258
-0.27160645
-0.27801514
-0.28442383
-0.2911377
-0.29724121
-0.3036499
-0.31005859
-0.31677246
-0.32318115
-0.32989502
-0.33660889
-0.34301758
-0.34942627
-0.35552979
-0.36132812
-0.36682129
-0.37231445
-0.37719727
-0.38116455
-0.38482666
-0.38726807
-0.38909912
-0.390625
-0.39154053
-0.39215088
-0.39245605
-0.39245605
-0.39245605
-0.39215088
-0.39154053
-0.39093018
-0.39031982
-0.38970947
-0.38909912
-0.38848877
-0.38818359
-0.38818359
-0.38818359
-0.38848877
-0.3894043
-0.39001465
-0.39123535
-0.39215088
-0.39337158
-0.39459229
-0.39520264
-0.39581299
-0.39642334
-0.39672852
-0.39703369
-0.39733887
-0.39733887
-0.39733887
-0.39703369
-0.39642334
-0.39550781
-0.39459229
-0.39337158
-0.39245605
-0.39123535
-0.39031982
-0.38909912
-0.38757324
-0.38604736
-0.38421631
-0.38269043
-0.38116455
-0.38024902
-0.3793335
-0.37902832
-0.37872314
-0.37841797
-0.37841797
-0.37811279
-0.37811279
-0.37780762
-0.37750244
-0.37719727
-0.37689209
-0.37658691
-0.37628174
-0.37567139
-0.37475586
-0.37384033
-0.3729248
-0.37200928
-0.37109375
-0.37017822
-0.3692627
-0.36834717
-0.36682129
-0.36499023
-0.36315918
-0.36132812
-0.35980225
-0.35797119
-0.35675049
-0.35552979
-0.35461426
-0.35369873
-0.35308838
-0.35308838
-0.35308838
-0.35308838
-0.35308838
-0.3527832
-0.35247803
-0.35247803
-0.35247803
-0.3527832
-0.35339355
-0.35369873
-0.35430908
-0.35491943
-0.35491943
-0.35430908
-0.35369873
-0.35247803
-0.35125732
-0.35003662
-0.34881592
-0.34790039
-0.34698486
-0.34576416
-0.34423828
-0.34301758
-0.34179688
-0.34088135
-0.33996582
-0.33905029
-0.33843994
-0.33782959
-0.33752441
-0.33691406
-0.33630371
-0.33599854
-0.33569336
-0.33630371
-0.33691406
-0.33782959
-0.33935547
-0.34057617
-0.34210205
-0.34393311
-0.34576416
-0.34759521
-0.34942627
-0.35125732
-0.3527832
-0.35369873
-0.35430908
-0.35430908
-0.35400391
-0.35339355
-0.35217285
-0.35095215
-0.34942627
-0.34790039
-0.34606934
-0.34454346
-0.3427124
-0.3414917
-0.340271
-0.33966064
-0.33935547
-0.33905029
-0.33935547
-0.340271
-0.3414917
-0.34301758
-0.34454346
-0.34606934
-0.34759521
-0.34912109
-0.34973145
-0.3503418
-0.3503418
-0.35003662
-0.34973145
-0.34942627
-0.34912109
-0.34881592
-0.34851074
-0.34820557
-0.34759521
-0.34729004
-0.34698486
-0.34698486
-0.34729004
-0.34790039
-0.34851074
-0.34912109
-0.34912109
-0.34912109
-0.34912109
-0.34881592
-0.34851074
-0.34790039
-0.34698486
-0.34606934
-0.34484863
-0.34362793
-0.34210205
-0.34088135
-0.33966064
-0.33874512
-0.33782959
-0.33721924
-0.33691406
-0.33691406
-0.33721924
-0.33782959
-0.33874512
-0.33966064
-0.34057617
-0.3414917
-0.34240723
-0.34301758
-0.34393311
-0.34484863
-0.34545898
-0.34637451
-0.34698486
-0.34759521
-0.34820557
-0.34881592
-0.34912109
-0.34973145
-0.3503418
-0.35095215
-0.35217285
-0.35308838
-0.35400391
-0.35461426
-0.35522461
-0.35522461
-0.35522461
-0.35491943
-0.35461426
-0.35430908
-0.35369873
-0.35339355
-0.35308838
-0.3527832
-0.35308838
-0.35308838
-0.35308838
-0.3527832
-0.35247803
-0.3515625
-0.35095215
-0.3503418
-0.34942627
-0.34881592
-0.34790039
-0.34729004
-0.34637451
-0.34545898
-0.34423828
-0.34301758
-0.34210205
-0.34088135
-0.340271
-0.33966064
-0.33935547
-0.33966064
-0.33996582
-0.34118652
-0.3427124
-0.34454346
-0.34667969
-0.34881592
-0.35095215
-0.3527832
-0.35430908
-0.35552979
-0.35614014
-0.35675049
-0.35736084
-0.35736084
-0.35736084
-0.35705566
-0.35583496
-0.35430908
-0.35247803
-0.3503418
-0.34820557
-0.34667969
-0.34576416
-0.34515381
-0.34423828
-0.34301758
-0.3414917
-0.33996582
-0.33813477
-0.33691406
-0.33599854
-0.33569336
-0.33569336
-0.33599854
-0.33660889
-0.33752441
-0.33843994
-0.33935547
-0.33996582
-0.34088135
-0.34118652
-0.34179688
-0.34210205
-0.34240723
-0.3427124
-0.34332275
-0.34332275
-0.34362793
-0.34362793
-0.34301758
-0.34240723
-0.3414917
-0.340271
-0.33935547
-0.33813477
-0.33721924
-0.33660889
-0.33599854
-0.33569336
-0.33508301
-0.33477783
-0.33447266
-0.33477783
-0.33508301
-0.33599854
-0.33691406
-0.33782959
-0.33813477
-0.33782959
-0.33721924
-0.33691406
-0.33630371
-0.33569336
-0.33538818
-0.33508301
-0.33447266
-0.3338623
-0.33294678
-0.33203125
-0.33081055
-0.32928467
-0.32775879
-0.32562256
-0.32348633
-0.32104492
-0.31829834
-0.31555176
-0.31280518
-0.31036377
-0.30822754
-0.30639648
-0.30456543
-0.30303955
-0.30151367
-0.30059814
-0.29998779
-0.29968262
-0.29968262
-0.29968262
-0.29968262
-0.29998779
-0.30059814
-0.30090332
-0.3012085
-0.30181885
-0.30212402
-0.30273438
-0.30303955
-0.30303955
-0.30273438
-0.30212402
-0.30151367
-0.3012085
-0.3012085
-0.30151367
-0.30212402
-0.30273438
-0.30303955
-0.30334473
-0.3036499
-0.3036499
-0.30395508
-0.30395508
-0.30395508
-0.30395508
-0.3036499
-0.30334473
-0.30273438
-0.30212402
-0.30090332
-0.29968262
-0.29846191
-0.29724121
-0.29632568
-0.29571533
-0.29541016
-0.29541016
-0.29571533
-0.29632568
-0.29724121
-0.29815674
-0.29968262
-0.30151367
-0.30395508
-0.30639648
-0.30914307
-0.31219482
-0.31524658
-0.31860352
-0.32226562
-0.32623291
-0.3302002
-0.3338623
-0.33752441
-0.34088135
-0.34393311
-0.34698486
-0.34973145
-0.35186768
-0.35369873
-0.35491943
-0.35614014
-0.35675049
-0.35675049
-0.35675049
-0.35614014
-0.35552979
-0.35491943
-0.35430908
-0.35400391
-0.35369873
-0.35339355
-0.35308838
-0.3527832
-0.35247803
-0.35217285
-0.35247803
-0.3527832
-0.35369873
-0.35430908
-0.35552979
-0.35644531
-0.35766602
-0.35858154
-0.35949707
-0.36010742
-0.36071777
-0.36102295
-0.36132812
-0.36132812
-0.36102295
-0.36102295
-0.36071777
-0.3604126
-0.35980225
-0.35888672
-0.35766602
-0.35614014
-0.35461426
-0.35308838
-0.3515625
-0.3503418
-0.34881592
-0.34790039
-0.34698486
-0.34606934
-0.34545898
-0.34484863
-0.34423828
-0.34393311
-0.34393311
-0.34393311
-0.34393311
-0.34393311
-0.34393311
-0.34423828
-0.34423828
-0.34454346
-0.34454346
-0.34484863
-0.34545898
-0.34576416
-0.34606934
-0.34606934
-0.34637451
-0.34667969
-0.34667969
-0.34698486
-0.34729004
-0.34759521
-0.34759521
-0.34759521
-0.34790039
-0.34790039
-0.34790039
-0.34820557
-0.34820557
-0.34820557
-0.34790039
-0.34790039
-0.34759521
-0.34759521
-0.34729004
-0.34698486
-0.34698486
-0.34698486
-0.34667969
-0.34637451
-0.34576416
-0.34454346
-0.34301758
-0.34088135
-0.33813477
-0.33569336
-0.33294678
-0.33050537
-0.32836914
-0.32653809
-0.32440186
-0.32226562
-0.31951904
-0.31585693
-0.3112793
-0.30578613
-0.29937744
-0.29144287
-0.28198242
-0.27038574
-0.25634766
-0.23925781
-0.21820068
-0.19256592
-0.16265869
-0.12878418
-0.091247559
-0.051269531
-0.010070801
0.031738281
0.072631836
0.11169434
0.14801025
0.18035889
0.20782471
0.22949219
0.24475098
0.25268555
0.2520752
0.24353027
0.22613525
0.20080566
0.16784668
0.12786865
0.082092285
0.031738281
-0.022583008
-0.079040527
-0.13671875
-0.19439697
-0.25115967
-0.30548096
-0.35736084
-0.40557861
-0.44952393
-0.4888916
-0.52307129
-0.55175781
-0.57556152
-0.59417725
-0.60760498
-0.61645508
-0.62072754
-0.62042236
-0.61584473
-0.60760498
-0.59631348
-0.58258057
-0.56640625
-0.54901123
-0.53039551
-0.51086426
-0.49072266
-0.47058105
-0.45074463
-0.43121338
-0.41290283
-0.39550781
-0.37994385
-0.36590576
-0.35339355
-0.3427124
-0.33325195
-0.32531738
-0.31829834
-0.31188965
-0.30639648
-0.30181885
-0.29785156
-0.29449463
-0.29205322
-0.28991699
-0.28808594
-0.28656006
-0.28533936
-0.28442383
-0.28320312
-0.2822876
-0.28106689
-0.27984619
-0.27893066
-0.27801514
-0.27709961
-0.27648926
-0.27587891
-0.27618408
-0.27648926
-0.27709961
-0.27801514
-0.27923584
-0.28015137
-0.28167725
-0.28320312
-0.28503418
-0.28717041
-0.28900146
-0.29022217
-0.2911377
-0.2911377
-0.2911377
-0.29052734
-0.28991699
-0.28930664
-0.28869629
-0.28808594
-0.28686523
-0.28533936
-0.28320312
-0.28076172
-0.27801514
-0.2746582
-0.27160645
-0.26855469
-0.26580811
-0.2633667
-0.26123047
-0.25970459
-0.25848389
-0.25756836
-0.25726318
-0.25695801
-0.25726318
-0.25756836
-0.25787354
-0.25848389
-0.25939941
-0.26031494
-0.26153564
-0.262146
-0.26306152
-0.26367188
-0.2645874
-0.26519775
-0.26611328
-0.26672363
-0.26641846
-0.26580811
-0.2645874
-0.26275635
-0.26031494
-0.25787354
-0.25543213
-0.25299072
-0.25054932
-0.24841309
-0.24658203
-0.24475098
-0.24261475
-0.24078369
-0.23864746
-0.23681641
-0.23498535
-0.23345947
-0.23223877
-0.23132324
-0.23040771
-0.22979736
-0.22949219
-0.22918701
-0.22888184
-0.22857666
-0.22857666
-0.22827148
-0.22827148
-0.22827148
-0.22827148
-0.22827148
-0.22857666
-0.22918701
-0.22949219
-0.23010254
-0.23040771
-0.23132324
-0.23223877
-0.2331543
-0.23468018
-0.23620605
-0.23803711
-0.23956299
-0.24078369
-0.24139404
-0.24139404
-0.24108887
-0.24017334
-0.23895264
-0.23742676
-0.23590088
-0.234375
-0.23254395
-0.23040771
-0.22796631
-0.2255249
-0.2230835
-0.22094727
-0.21911621
-0.21697998
-0.21484375
-0.21270752
-0.21057129
-0.20904541
-0.20782471
-0.20690918
-0.20599365
-0.2053833
-0.20446777
-0.20355225
-0.20263672
-0.20141602
-0.20019531
-0.19897461
-0.19805908
-0.19714355
-0.19683838
-0.1965332
-0.19622803
-0.19592285
-0.19561768
-0.19500732
-0.19439697
-0.19348145
-0.19287109
-0.19226074
-0.19165039
-0.19073486
-0.18981934
-0.18829346
-0.18676758
-0.18463135
-0.18249512
-0.18005371
-0.1776123
-0.17486572
-0.17242432
-0.16967773
-0.1675415
-0.16571045
-0.16418457
-0.16326904
-0.16265869
-0.16265869
-0.16235352
-0.16174316
-0.16052246
-0.15869141
-0.15655518
-0.15411377
-0.15167236
-0.14923096
-0.14648438
-0.14343262
-0.14038086
-0.13671875
-0.13244629
-0.12756348
-0.12176514
-0.11566162
-0.10925293
-0.10284424
-0.096435547
-0.090637207
-0.085449219
-0.080566406
-0.07598877
-0.072021484
-0.068664551
-0.065612793
-0.062866211
-0.06072998
-0.058898926
-0.057678223
-0.05645752
-0.055541992
-0.054626465
-0.054016113
-0.053405762
-0.053100586
-0.053100586
-0.053100586
-0.053100586
-0.05279541
-0.052185059
-0.05065918
-0.048828125
-0.04699707
-0.045166016
-0.043334961
-0.041809082
-0.039978027
-0.038146973
-0.036315918
-0.034790039
-0.033569336
-0.032653809
-0.032043457
-0.032043457
-0.032348633
-0.032958984
-0.033874512
-0.035095215
-0.03692627
-0.039367676
-0.042114258
-0.045471191
-0.049133301
-0.053405762
-0.058288574
-0.063476562
-0.069274902
-0.075073242
-0.081787109
-0.088500977
-0.095825195
-0.10345459
-0.11138916
-0.11962891
-0.12786865
-0.13641357
-0.14526367
-0.15411377
-0.16326904
-0.17272949
-0.18218994
-0.19165039
-0.20080566
-0.20965576
-0.21820068
-0.22644043
-0.23406982
-0.24169922
-0.24932861
-0.25665283
-0.26428223
-0.2722168
-0.28015137
-0.28747559
-0.29418945
-0.30029297
-0.30548096
-0.31036377
-0.31494141
-0.31951904
-0.32409668
-0.32867432
-0.33325195
-0.33752441
-0.34179688
-0.34484863
-0.34759521
-0.34942627
-0.35095215
-0.35247803
-0.35400391
-0.35522461
-0.35675049
-0.35827637
-0.35949707
-0.36102295
-0.36254883
-0.36437988
-0.36590576
-0.36804199
-0.36987305
-0.37200928
-0.37414551
-0.37628174
-0.37872314
-0.38116455
-0.38299561
-0.38482666
-0.38604736
-0.38726807
-0.38848877
-0.38909912
-0.3894043
-0.3894043
-0.38909912
-0.38879395
-0.38818359
-0.38757324
-0.38696289
-0.38665771
-0.38574219
-0.38513184
-0.38391113
-0.38269043
-0.38146973
-0.38024902
-0.37902832
-0.37811279
-0.37719727
-0.37658691
-0.37597656
-0.37506104
-0.37414551
-0.3729248
-0.3717041
-0.37017822
-0.36895752
-0.36773682
-0.36682129
-0.36621094
-0.36560059
-0.36529541
-0.36499023
-0.36499023
-0.36499023
-0.36529541
-0.36560059
-0.36590576
-0.36651611
-0.36682129
-0.36682129
-0.36651611
-0.36590576
-0.36529541
-0.36468506
-0.36407471
-0.36315918
-0.36254883
-0.36132812
-0.35980225
-0.35827637
-0.35614014
-0.35400391
-0.35217285
-0.35003662
-0.34790039
-0.34576416
-0.34362793
-0.34179688
-0.340271
-0.33874512
-0.33721924
-0.33599854
-0.33477783
-0.3338623
-0.33325195
-0.33294678
-0.33325195
-0.3338623
-0.33447266
-0.33538818
-0.33630371
-0.33691406
-0.33752441
-0.33782959
-0.33782959
-0.33813477
-0.33813477
-0.33813477
-0.33813477
-0.33782959
-0.33782959
-0.33782959
-0.33752441
-0.33752441
-0.33752441
-0.33752441
-0.33782959
-0.33813477
-0.33813477
-0.33843994
-0.33813477
-0.33813477
-0.33782959
-0.33782959
-0.33752441
-0.33691406
-0.33630371
-0.33508301
-0.33355713
-0.33203125
-0.3302002
-0.32836914
-0.32684326
-0.32531738
-0.32409668
-0.32287598
-0.32196045
-0.32165527
-0.32196045
-0.3225708
-0.3237915
-0.32501221
-0.32653809
-0.32806396
-0.32958984
-0.33111572
-0.3326416
-0.33416748
-0.33538818
-0.33630371
-0.33721924
-0.33752441
-0.33782959
-0.33782959
-0.33782959
-0.33752441
-0.33660889
-0.33569336
-0.33447266
-0.33294678
-0.3314209
-0.32958984
-0.32836914
-0.32714844
-0.32592773
-0.32531738
-0.32440186
-0.3237915
-0.32318115
-0.32287598
-0.3225708
-0.3225708
-0.32318115
-0.3237915
-0.32501221
-0.32623291
-0.32775879
-0.32958984
-0.3314209
-0.33325195
-0.33508301
-0.33691406
-0.33874512
-0.33996582
-0.34088135
-0.34179688
-0.34240723
-0.34301758
-0.34332275
-0.34332275
-0.34332275
-0.34332275
-0.34332275
-0.34332275
-0.34301758
-0.3427124
-0.34210205
-0.34118652
-0.34057617
-0.33996582
-0.33935547
-0.33905029
-0.33905029
-0.33874512
-0.33874512
-0.33874512
-0.33874512
-0.33905029
-0.33966064
-0.340271
-0.34088135
-0.34179688
-0.34240723
-0.34332275
-0.34362793
-0.34393311
-0.34423828
-0.34423828
-0.34393311
-0.34362793
-0.34332275
-0.3427124
-0.34179688
-0.34118652
-0.340271
-0.33996582
-0.33996582
-0.340271
-0.34088135
-0.34179688
-0.34301758
-0.34393311
-0.34484863
-0.34576416
-0.34667969
-0.34759521
-0.34881592
-0.34942627
-0.35003662
-0.34973145
-0.34912109
-0.34820557
-0.34698486
-0.34545898
-0.34362793
-0.34179688
-0.33996582
-0.33782959
-0.33569336
-0.33355713
-0.33203125
-0.33081055
-0.32989502
-0.32958984
-0.32989502
-0.32989502
-0.3302002
-0.3302002
-0.33050537
-0.33050537
-0.33081055
-0.33111572
-0.3314209
-0.33172607
-0.33203125
-0.33233643
-0.33233643
-0.3326416
-0.33294678
-0.33325195
-0.33355713
-0.33416748
-0.33477783
-0.33569336
-0.33660889
-0.33752441
-0.33874512
-0.33996582
-0.34088135
-0.34179688
-0.34240723
-0.3427124
-0.34301758
-0.3427124
-0.3427124
-0.34240723
-0.34210205
-0.34179688
-0.3414917
-0.34088135
-0.340271
-0.33935547
-0.33874512
-0.33782959
-0.33721924
-0.33660889
-0.33599854
-0.33569336
-0.33569336
-0.33569336
-0.33599854
-0.33660889
-0.33721924
-0.33752441
-0.33782959
-0.33813477
-0.33874512
-0.33935547
-0.33996582
-0.34057617
-0.34057617
-0.33996582
-0.33935547
-0.33843994
-0.33721924
-0.33569336
-0.33447266
-0.3326416
-0.3302002
-0.32714844
-0.3237915
-0.32043457
-0.31677246
-0.31341553
-0.31036377
-0.30761719
-0.30517578
-0.30303955
-0.3012085
-0.29937744
-0.29754639
-0.29663086
-0.29632568
-0.29663086
-0.29785156
-0.29937744
-0.3012085
-0.3024292
-0.30334473
-0.30456543
-0.30548096
-0.30700684
-0.30822754
-0.30944824
-0.31005859
-0.31005859
-0.30975342
-0.30853271
-0.30700684
-0.30517578
-0.30273438
-0.30029297
-0.29815674
-0.29571533
-0.2935791
-0.29144287
-0.28930664
-0.28778076
-0.28656006
-0.28564453
-0.28503418
-0.284729
-0.284729
-0.28503418
-0.28533936
-0.28625488
-0.28717041
-0.28839111
-0.28991699
-0.29174805
-0.29327393
-0.2947998
-0.29602051
-0.29693604
-0.29724121
-0.29785156
-0.29815674
-0.29846191
-0.29876709
-0.29937744
-0.30029297
-0.3012085
-0.30273438
-0.30456543
-0.30639648
-0.30853271
-0.31066895
-0.31311035
-0.31555176
-0.31829834
-0.3213501
-0.32470703
-0.32806396
-0.33172607
-0.33538818
-0.33874512
-0.34210205
-0.34484863
-0.34729004
-0.34942627
-0.35125732
-0.35308838
-0.35461426
-0.35614014
-0.35736084
-0.35858154
-0.35949707
-0.3604126
-0.36071777
-0.36071777
-0.36071777
-0.36071777
-0.3604126
-0.3604126
-0.3604126
-0.36010742
-0.35980225
-0.35919189
-0.35858154
-0.35766602
-0.35675049
-0.35614014
-0.35552979
-0.35491943
-0.35461426
-0.35430908
-0.35430908
-0.35430908
-0.35461426
-0.35491943
-0.35522461
-0.35552979
-0.35614014
-0.35675049
-0.35736084
-0.35827637
-0.35949707
-0.36071777
-0.36193848
-0.362854
-0.36376953
-0.36437988
-0.36468506
-0.36468506
-0.36468506
-0.36437988
-0.36437988
-0.36407471
-0.36346436
-0.36315918
-0.36254883
-0.3616333
-0.36102295
-0.3604126
-0.36010742
-0.36010742
-0.3604126
-0.36071777
-0.36132812
-0.36193848
-0.36224365
-0.362854
-0.36315918
-0.36376953
-0.36437988
-0.36499023
-0.36621094
-0.36712646
-0.36804199
-0.36865234
-0.36895752
-0.36865234
-0.36773682
-0.36651611
-0.36529541
-0.36437988
-0.36346436
-0.362854
-0.36224365
-0.36132812
-0.35980225
-0.35797119
-0.35583496
-0.35308838
-0.35003662
-0.34698486
-0.34332275
-0.33996582
-0.33630371
-0.33294678
-0.32958984
-0.32653809
-0.3237915
-0.3213501
-0.31890869
-0.31707764
-0.31555176
-0.31433105
-0.31402588
-0.31433105
-0.31494141
-0.31616211
-0.31799316
-0.32012939
-0.32196045
-0.32318115
-0.32348633
-0.32226562
-0.31921387
-0.31402588
-0.30639648
-0.29571533
-0.28167725
-0.26397705
-0.24139404
-0.21392822
-0.18188477
-0.14648438
-0.1083374
-0.068359375
-0.028076172
0.011901855
0.050354004
0.085754395
0.11779785
0.14526367
0.16723633
0.18218994
0.18981934
0.18890381
0.17974854
0.16174316
0.13580322
0.10223389
0.061645508
0.015563965
-0.035095215
-0.088806152
-0.14434814
-0.20050049
-0.25543213
-0.30883789
-0.35919189
-0.40618896
-0.44921875
-0.4876709
-0.52154541
-0.55053711
-0.57403564
-0.59234619
-0.60516357
-0.61309814
-0.61676025
-0.61645508
-0.61279297
-0.6060791
-0.59692383
-0.58532715
-0.57220459
-0.55755615
-0.54199219
-0.52581787
-0.5090332
-0.49224854
-0.47576904
-0.45959473
-0.44433594
-0.43029785
-0.41717529
-0.40527344
-0.39489746
-0.38604736
-0.37780762
-0.37017822
-0.36224365
-0.35461426
-0.34698486
-0.33996582
-0.33355713
-0.32745361
-0.32196045
-0.31677246
-0.31158447
-0.30700684
-0.3024292
-0.29815674
-0.29449463
-0.2911377
-0.28839111
-0.28625488
-0.28442383
-0.2835083
-0.28289795
-0.28320312
-0.28381348
-0.28503418
-0.28686523
-0.28869629
-0.29083252
-0.29266357
-0.29449463
-0.29571533
-0.29663086
-0.29663086
-0.29663086
-0.29602051
-0.29541016
-0.29449463
-0.2935791
-0.29266357
-0.2911377
-0.28961182
-0.28778076
-0.28564453
-0.2835083
-0.28167725
-0.27984619
-0.27801514
-0.27709961
-0.27648926
-0.27618408
-0.27618408
-0.27679443
-0.27740479
-0.27832031
-0.27954102
-0.28045654
-0.28167725
-0.28289795
-0.28411865
-0.28533936
-0.28656006
-0.28778076
-0.28869629
-0.28930664
-0.28961182
-0.28930664
-0.28869629
-0.28778076
-0.28656006
-0.28533936
-0.2835083
-0.28167725
-0.27954102
-0.27709961
-0.27496338
-0.27252197
-0.27069092
-0.26916504
-0.26794434
-0.26763916
-0.26733398
-0.26763916
-0.26824951
-0.26855469
-0.26916504
-0.26977539
-0.27008057
-0.27069092
-0.27130127
-0.27191162
-0.2722168
-0.2722168
-0.27191162
-0.27130127
-0.27069092
-0.26977539
-0.26885986
-0.26733398
-0.26580811
-0.26397705
-0.262146
-0.26062012
-0.25970459
-0.25939941
-0.25939941
-0.26000977
-0.26062012
-0.26092529
-0.26092529
-0.26092529
-0.26062012
-0.25970459
-0.25909424
-0.25817871
-0.25756836
-0.25665283
-0.2557373
-0.2545166
-0.25299072
-0.25177002
-0.25024414
-0.24902344
-0.24749756
-0.24627686
-0.24505615
-0.24414062
-0.24353027
-0.24353027
-0.24383545
-0.24414062
-0.2444458
-0.24475098
-0.24505615
-0.24536133
-0.2456665
-0.2456665
-0.24536133
-0.24475098
-0.24383545
-0.24291992
-0.24200439
-0.24078369
-0.23956299
-0.23834229
-0.23742676
-0.23620605
-0.23498535
-0.23376465
-0.23223877
-0.23101807
-0.22949219
-0.22827148
-0.22705078
-0.22583008
-0.22491455
-0.2243042
-0.22369385
-0.22277832
-0.22186279
-0.22033691
-0.21881104
-0.2166748
-0.21453857
-0.21209717
-0.20965576
-0.20751953
-0.2053833
-0.20324707
-0.20111084
-0.19927979
-0.19744873
-0.1953125
-0.19348145
-0.19195557
-0.19042969
-0.18920898
-0.18798828
-0.18707275
-0.18615723
-0.1852417
-0.18432617
-0.18341064
-0.18218994
-0.18066406
-0.17913818
-0.17730713
-0.1751709
-0.17303467
-0.17089844
-0.16845703
-0.16571045
-0.16296387
-0.16021729
-0.1574707
-0.15472412
-0.15167236
-0.14892578
-0.1461792
-0.14373779
-0.14099121
-0.1385498
-0.1361084
-0.13397217
-0.13183594
-0.13000488
-0.12817383
-0.12664795
-0.12451172
-0.12237549
-0.11993408
-0.11749268
-0.11474609
-0.11230469
-0.10986328
-0.1071167
-0.10467529
-0.10162354
-0.098266602
-0.094299316
-0.090332031
-0.086364746
-0.082702637
-0.079345703
-0.076293945
-0.073242188
-0.070800781
-0.068969727
-0.067443848
-0.066223145
-0.065307617
-0.065002441
-0.065002441
-0.065307617
-0.065917969
-0.067138672
-0.068359375
-0.07019043
-0.071716309
-0.073547363
-0.075378418
-0.077514648
-0.079956055
-0.082397461
-0.085144043
-0.088500977
-0.092163086
-0.096740723
-0.10162354
-0.1071167
-0.11322021
-0.11962891
-0.12695312
-0.1348877
-0.14343262
-0.15289307
-0.16235352
-0.17211914
-0.18188477
-0.19165039
-0.20111084
-0.21026611
-0.21911621
-0.22796631
-0.23651123
-0.24505615
-0.2532959
-0.26092529
-0.26794434
-0.27496338
-0.28137207
-0.28747559
-0.2935791
-0.29937744
-0.30517578
-0.31097412
-0.31707764
-0.32348633
-0.33081055
-0.33813477
-0.34545898
-0.35217285
-0.35827637
-0.36376953
-0.36865234
-0.3729248
-0.37719727
-0.38085938
-0.38452148
-0.38757324
-0.39001465
-0.3918457
-0.39337158
-0.39428711
-0.39489746
-0.39550781
-0.39581299
-0.39642334
-0.39703369
-0.39794922
-0.39886475
-0.40008545
-0.40161133
-0.40344238
-0.40557861
-0.40771484
-0.41015625
-0.41259766
-0.41503906
-0.41717529
-0.41900635
-0.42053223
-0.42175293
-0.42236328
-0.42297363
-0.42327881
-0.42358398
-0.42388916
-0.42388916
-0.42419434
-0.42419434
-0.42419434
-0.42449951
-0.42449951
-0.42419434
-0.42327881
-0.42205811
-0.42114258
-0.42022705
-0.41992188
-0.4196167
-0.4196167
-0.41900635
-0.41809082
-0.41687012
-0.41534424
-0.41320801
-0.41107178
-0.40893555
-0.40679932
-0.40496826
-0.40283203
-0.40100098
-0.39886475
-0.39703369
-0.39489746
-0.39276123
-0.390625
-0.38909912
-0.38787842
-0.38696289
-0.38696289
-0.38696289
-0.38787842
-0.38879395
-0.38970947
-0.39031982
-0.390625
-0.390625
-0.39031982
-0.39031982
-0.39001465
-0.38970947
-0.38909912
-0.38787842
-0.38604736
-0.38421631
-0.3817749
-0.3793335
-0.37719727
-0.37506104
-0.37353516
-0.37231445
-0.3717041
-0.37109375
-0.37109375
-0.37109375
-0.37139893
-0.37200928
-0.37322998
-0.37475586
-0.37628174
-0.37780762
-0.37902832
-0.37994385
-0.3805542
-0.38024902
-0.37994385
-0.37902832
-0.37811279
-0.37689209
-0.37567139
-0.37414551
-0.37261963
-0.37078857
-0.36895752
-0.36712646
-0.36560059
-0.36407471
-0.362854
-0.36193848
-0.3616333
-0.3616333
-0.3616333
-0.36193848
-0.36254883
-0.36315918
-0.36346436
-0.36437988
-0.36529541
-0.36621094
-0.36773682
-0.3692627
-0.3704834
-0.37200928
-0.37353516
-0.37475586
-0.37628174
-0.37750244
-0.37902832
-0.37994385
-0.38085938
-0.38146973
-0.3817749
-0.3817749
-0.38208008
-0.38208008
-0.3817749
-0.38146973
-0.38085938
-0.38024902
-0.37902832
-0.37811279
-0.37750244
-0.37689209
-0.37628174
-0.37597656
-0.37567139
-0.37567139
-0.37536621
-0.37506104
-0.37414551
-0.37353516
-0.3729248
-0.37261963
-0.37231445
-0.37231445
-0.37231445
-0.37231445
-0.37200928
-0.37200928
-0.3717041
-0.3717041
-0.37139893
-0.37139893
-0.3717041
-0.37231445
-0.37322998
-0.37414551
-0.37506104
-0.37597656
-0.37689209
-0.37780762
-0.37841797
-0.37902832
-0.3793335
-0.3793335
-0.3793335
-0.37902832
-0.37872314
-0.37841797
-0.37780762
-0.37750244
-0.37719727
-0.37689209
-0.37689209
-0.37689209
-0.37719727
-0.37750244
-0.37780762
-0.37811279
-0.37872314
-0.37902832
-0.37963867
-0.3805542
-0.38116455
-0.3817749
-0.38208008
-0.38238525
-0.38238525
-0.38238525
-0.38208008
-0.38208008
-0.38146973
-0.38085938
-0.37963867
-0.37872314
-0.37780762
-0.37689209
-0.37597656
-0.37536621
-0.37506104
-0.37506104
-0.37506104
-0.37567139
-0.37628174
-0.37689209
-0.37780762
-0.37872314
-0.37994385
-0.38116455
-0.38208008
-0.38360596
-0.38482666
-0.38574219
-0.38635254
-0.38696289
-0.38726807
-0.38726807
-0.38665771
-0.38604736
-0.38543701
-0.38452148
-0.38360596
-0.38269043
-0.38116455
-0.37994385
-0.37841797
-0.37689209
-0.37536621
-0.37384033
-0.37200928
-0.3704834
-0.36834717
-0.36651611
-0.36437988
-0.36224365
-0.3604126
-0.35858154
-0.35675049
-0.35522461
-0.35369873
-0.35247803
-0.35095215
-0.34973145
-0.34881592
-0.34790039
-0.34698486
-0.34606934
-0.34545898
-0.34484863
-0.34454346
-0.34362793
-0.3427124
-0.3414917
-0.33935547
-0.33721924
-0.33477783
-0.33233643
-0.32989502
-0.32714844
-0.32470703
-0.32196045
-0.31890869
-0.31585693
-0.3125
-0.30975342
-0.30700684
-0.30487061
-0.30303955
-0.30181885
-0.30090332
-0.30029297
-0.29998779
-0.29998779
-0.30029297
-0.30090332
-0.3012085
-0.30181885
-0.3024292
-0.30334473
-0.30487061
-0.30700684
-0.30975342
-0.3125
-0.31555176
-0.31829834
-0.32104492
-0.32318115
-0.32531738
-0.32775879
-0.3302002
-0.33294678
-0.33599854
-0.33905029
-0.34210205
-0.34484863
-0.34729004
-0.34942627
-0.35125732
-0.3527832
-0.35461426
-0.35644531
-0.35827637
-0.36071777
-0.36315918
-0.36590576
-0.36834717
-0.37078857
-0.37322998
-0.37506104
-0.37689209
-0.37841797
-0.38024902
-0.3817749
-0.38360596
-0.38543701
-0.38757324
-0.3894043
-0.39123535
-0.39215088
-0.39245605
-0.39215088
-0.39123535
-0.39001465
-0.38909912
-0.38818359
-0.38757324
-0.38665771
-0.38604736
-0.38513184
-0.38421631
-0.38299561
-0.38146973
-0.37994385
-0.37872314
-0.37780762
-0.37689209
-0.37658691
-0.37628174
-0.37628174
-0.37689209
-0.37750244
-0.37872314
-0.38024902
-0.3817749
-0.38299561
-0.38360596
-0.38391113
-0.38360596
-0.38360596
-0.38360596
-0.38360596
-0.38421631
-0.38452148
-0.38513184
-0.38513184
-0.38452148
-0.38360596
-0.38238525
-0.38116455
-0.37994385
-0.37902832
-0.37841797
-0.37811279
-0.37780762
-0.37719727
-0.37689209
-0.37628174
-0.37567139
-0.37536621
-0.37506104
-0.37445068
-0.37384033
-0.37322998
-0.37261963
-0.37200928
-0.3717041
-0.37139893
-0.37139893
-0.37139893
-0.37109375
-0.37078857
-0.3704834
-0.36987305
-0.36987305
-0.36956787
-0.36956787
-0.36956787
-0.36987305
-0.36956787
-0.36956787
-0.3692627
-0.3692627
-0.3692627
-0.3692627
-0.3692627
-0.36956787
-0.36956787
-0.36987305
-0.37017822
-0.3704834
-0.37109375
-0.37139893
-0.37139893
-0.37109375
-0.3704834
-0.36987305
-0.36895752
-0.36773682
-0.36651611
-0.36468506
-0.36254883
-0.35980225
-0.35583496
-0.35095215
-0.34423828
-0.33599854
-0.32592773
-0.31311035
-0.29754639
-0.27893066
-0.25634766
-0.22979736
-0.19927979
-0.16571045
-0.12939453
-0.09185791
-0.053405762
-0.015563965
0.021362305
0.056152344
0.087585449
0.11505127
0.13793945
0.15472412
0.16479492
0.16693115
0.16082764
0.14556885
0.12237549
0.091247559
0.053710938
0.010681152
-0.037231445
-0.088195801
-0.14160156
-0.19622803
-0.25085449
-0.30426025
-0.35583496
-0.40435791
-0.4486084
-0.48797607
-0.52215576
-0.55114746
-0.57495117
-0.59387207
-0.60760498
-0.61676025
-0.62164307
-0.62225342
-0.61920166
-0.61309814
-0.60455322
-0.59387207
-0.58166504
-0.56854248
-0.55450439
-0.54016113
-0.5255127
-0.51086426
-0.496521
-0.48248291
-0.46936035
-0.45654297
-0.44464111
-0.43365479
-0.42327881
-0.41351318
-0.40435791
-0.39550781
-0.38665771
-0.37811279
-0.36987305
-0.3616333
-0.35400391
-0.34729004
-0.34088135
-0.33508301
-0.32989502
-0.32470703
-0.31982422
-0.31494141
-0.31036377
-0.30639648
-0.30334473
-0.30059814
-0.29846191
-0.29663086
-0.29510498
-0.2935791
-0.29266357
-0.29205322
-0.29174805
-0.29144287
-0.29052734
-0.28961182
-0.28869629
-0.28778076
-0.28686523
-0.28594971
-0.28533936
-0.284729
-0.28411865
-0.28320312
-0.2822876
-0.28076172
-0.27954102
-0.27832031
-0.27740479
-0.27679443
-0.27679443
-0.27679443
-0.27740479
-0.27801514
-0.27862549
-0.27954102
-0.28045654
-0.28106689
-0.28167725
-0.2822876
-0.28289795
-0.28320312
-0.28381348
-0.28411865
-0.28411865
-0.2835083
-0.28259277
-0.28137207
-0.27984619
-0.27832031
-0.27648926
-0.2746582
-0.27252197
-0.27038574
-0.26824951
-0.26641846
-0.26428223
-0.26245117
-0.26092529
-0.25939941
-0.25817871
-0.25726318
-0.25695801
-0.25665283
-0.25665283
-0.25695801
-0.25726318
-0.25787354
-0.25817871
-0.25878906
-0.25909424
-0.25939941
-0.25970459
-0.26000977
-0.26031494
-0.26031494
-0.26031494
-0.26000977
-0.25939941
-0.25848389
-0.25787354
-0.25695801
-0.25634766
-0.25604248
-0.2557373
-0.25512695
-0.25482178
-0.2545166
-0.25421143
-0.25390625
-0.25360107
-0.25299072
-0.2520752
-0.25115967
-0.25024414
-0.24902344
-0.24749756
-0.24597168
-0.24414062
-0.24230957
-0.24047852
-0.23864746
-0.23681641
-0.23529053
-0.23406982
-0.23284912
-0.23193359
-0.23132324
-0.23071289
-0.23010254
-0.22949219
-0.22888184
-0.22827148
-0.22735596
-0.22674561
-0.22613525
-0.2255249
-0.22460938
-0.22369385
-0.2230835
-0.22247314
-0.22186279
-0.22125244
-0.22033691
-0.21942139
-0.21820068
-0.21697998
-0.21606445
-0.2154541
-0.21514893
-0.21484375
-0.21453857
-0.2142334
-0.21362305
-0.2130127
-0.21209717
-0.21087646
-0.20996094
-0.20904541
-0.20812988
-0.20751953
-0.20721436
-0.20690918
-0.20690918
-0.206604
-0.20629883
-0.20568848
-0.2053833
-0.20477295
-0.20446777
-0.20385742
-0.20324707
-0.20233154
-0.20141602
-0.20019531
-0.19897461
-0.19744873
-0.19592285
-0.1940918
-0.19226074
-0.19012451
-0.18768311
-0.1852417
-0.18280029
-0.18035889
-0.17822266
-0.17608643
-0.1739502
-0.17150879
-0.16906738
-0.1663208
-0.16387939
-0.16113281
-0.15838623
-0.15563965
-0.15258789
-0.14984131
-0.14678955
-0.14373779
-0.14007568
-0.13641357
-0.13275146
-0.12908936
-0.12542725
-0.12207031
-0.11810303
-0.11444092
-0.11047363
-0.10650635
-0.10314941
-0.09979248
-0.096740723
-0.093994141
-0.091552734
-0.08972168
-0.088500977
-0.087890625
-0.087280273
-0.086669922
-0.085754395
-0.084533691
-0.083312988
-0.082092285
-0.08026123
-0.078430176
-0.07598877
-0.073547363
-0.070495605
-0.067443848
-0.064086914
-0.060424805
-0.056762695
