dataANDREWwristankleankle.acq
1.0 msec/sample
1 channels
ECG (.05 - 35 Hz)
mV
CH2,
133130,
-1.0455322
-1.0519409
-1.0577393
-1.0629272
-1.0668945
-1.0696411
-1.0708618
-1.0705566
-1.0684204
-1.0638428
-1.0571289
-1.0476685
-1.0360718
-1.0211182
-1.003418
-0.98266602
-0.95855713
-0.93078613
-0.8996582
-0.86456299
-0.82611084
-0.78399658
-0.73822021
-0.68908691
-0.63659668
-0.58074951
-0.52276611
-0.46295166
-0.40222168
-0.34179688
-0.2822876
-0.22491455
-0.17120361
-0.12237549
-0.08026123
-0.04486084
-0.017700195
0.0018310547
0.012817383
0.014953613
0.0088500977
-0.0057983398
-0.028686523
-0.059509277
-0.096740723
-0.14007568
-0.18829346
-0.23986816
-0.2935791
-0.34820557
-0.40313721
-0.45654297
-0.50842285
-0.55755615
-0.6036377
-0.6463623
-0.68572998
-0.72143555
-0.75317383
-0.78125
-0.80535889
-0.82580566
-0.84350586
-0.85784912
-0.86975098
-0.87890625
-0.88592529
-0.89111328
-0.89477539
-0.89782715
-0.89996338
-0.90179443
-0.90301514
-0.90362549
-0.90393066
-0.90393066
-0.90393066
-0.90393066
-0.90393066
-0.90423584
-0.90454102
-0.90545654
-0.90606689
-0.90698242
-0.90820312
-0.90942383
-0.91064453
-0.91186523
-0.91278076
-0.91369629
-0.91461182
-0.91552734
-0.91674805
-0.9173584
-0.91827393
-0.91888428
-0.91918945
-0.9197998
-0.92010498
-0.92041016
-0.92102051
-0.92163086
-0.92224121
-0.92285156
-0.92376709
-0.92468262
-0.92559814
-0.92651367
-0.9274292
-0.92834473
-0.92926025
-0.92956543
-0.92987061
-0.92956543
-0.92926025
-0.9286499
-0.92773438
-0.92651367
-0.92498779
-0.92346191
-0.92163086
-0.92010498
-0.91827393
-0.91674805
-0.91522217
-0.91400146
-0.91278076
-0.91217041
-0.91186523
-0.91186523
-0.91186523
-0.91247559
-0.91308594
-0.91400146
-0.91461182
-0.91522217
-0.91552734
-0.91552734
-0.91461182
-0.91339111
-0.91156006
-0.90942383
-0.9072876
-0.90484619
-0.90240479
-0.8996582
-0.89691162
-0.89447021
-0.89172363
-0.88897705
-0.88653564
-0.88409424
-0.88226318
-0.88104248
-0.87982178
-0.87921143
-0.87921143
-0.87890625
-0.87921143
-0.87921143
-0.87921143
-0.87890625
-0.87860107
-0.87799072
-0.8770752
-0.87615967
-0.87524414
-0.87402344
-0.87249756
-0.87097168
-0.8694458
-0.86791992
-0.86669922
-0.86547852
-0.86456299
-0.86334229
-0.86242676
-0.86120605
-0.8605957
-0.85968018
-0.85906982
-0.85845947
-0.85784912
-0.85723877
-0.85632324
-0.85510254
-0.85388184
-0.85205078
-0.85021973
-0.8480835
-0.84594727
-0.84350586
-0.84106445
-0.83862305
-0.83618164
-0.83374023
-0.83099365
-0.82855225
-0.82611084
-0.82366943
-0.82122803
-0.8190918
-0.81695557
-0.81481934
-0.81237793
-0.8102417
-0.80810547
-0.80535889
-0.80291748
-0.8001709
-0.79711914
-0.79406738
-0.79101562
-0.78765869
-0.78430176
-0.78063965
-0.77667236
-0.77270508
-0.76873779
-0.76477051
-0.76080322
-0.75714111
-0.75378418
-0.75012207
-0.74707031
-0.74401855
-0.74127197
-0.73852539
-0.73608398
-0.73364258
-0.73120117
-0.72906494
-0.72723389
-0.72509766
-0.72296143
-0.7208252
-0.71838379
-0.71594238
-0.7131958
-0.71014404
-0.70709229
-0.70373535
-0.70037842
-0.69671631
-0.69335938
-0.69000244
-0.68695068
-0.68389893
-0.68115234
-0.67840576
-0.67596436
-0.67352295
-0.67138672
-0.66986084
-0.66833496
-0.66741943
-0.66680908
-0.66619873
-0.66558838
-0.6652832
-0.6652832
-0.66497803
-0.66497803
-0.66467285
-0.66467285
-0.66436768
-0.6640625
-0.66375732
-0.66375732
-0.66375732
-0.6640625
-0.66467285
-0.66558838
-0.66680908
-0.66833496
-0.67047119
-0.6729126
-0.67565918
-0.67901611
-0.68267822
-0.68695068
-0.6918335
-0.69702148
-0.70281982
-0.70861816
-0.71502686
-0.72174072
-0.72845459
-0.73516846
-0.74188232
-0.74859619
-0.75531006
-0.76202393
-0.76873779
-0.77484131
-0.78125
-0.78735352
-0.79376221
-0.79956055
-0.80566406
-0.81115723
-0.81695557
-0.82214355
-0.82763672
-0.83312988
-0.83862305
-0.84411621
-0.84960938
-0.85449219
-0.85876465
-0.86273193
-0.86639404
-0.87005615
-0.87310791
-0.87585449
-0.8782959
-0.88012695
-0.88195801
-0.88378906
-0.88531494
-0.887146
-0.88867188
-0.89050293
-0.89172363
-0.89294434
-0.89447021
-0.89599609
-0.89752197
-0.8996582
-0.90209961
-0.90484619
-0.90789795
-0.91094971
-0.91400146
-0.91674805
-0.91918945
-0.92163086
-0.92346191
-0.92498779
-0.9262085
-0.92712402
-0.92773438
-0.92803955
-0.9286499
-0.92895508
-0.92895508
-0.92926025
-0.92926025
-0.92926025
-0.92926025
-0.92895508
-0.92895508
-0.9286499
-0.9286499
-0.9286499
-0.9286499
-0.9286499
-0.92895508
-0.92926025
-0.92956543
-0.92987061
-0.93017578
-0.93048096
-0.93078613
-0.93109131
-0.93078613
-0.93078613
-0.93048096
-0.93048096
-0.93078613
-0.93109131
-0.93170166
-0.93200684
-0.93261719
-0.93292236
-0.93322754
-0.93353271
-0.93383789
-0.93353271
-0.93322754
-0.93261719
-0.93200684
-0.93139648
-0.93048096
-0.92987061
-0.9286499
-0.9274292
-0.92590332
-0.92437744
-0.92315674
-0.92193604
-0.92071533
-0.91949463
-0.9185791
-0.91766357
-0.91674805
-0.91644287
-0.9161377
-0.9161377
-0.91644287
-0.91705322
-0.9173584
-0.91796875
-0.9185791
-0.91888428
-0.91918945
-0.91949463
-0.91918945
-0.91918945
-0.9185791
-0.91796875
-0.91705322
-0.91583252
-0.91461182
-0.91308594
-0.91156006
-0.91003418
-0.9085083
-0.9072876
-0.90667725
-0.90606689
-0.90576172
-0.90606689
-0.90667725
-0.90759277
-0.90881348
-0.91033936
-0.91186523
-0.91369629
-0.91522217
-0.91674805
-0.91827393
-0.91949463
-0.92071533
-0.92102051
-0.92132568
-0.92102051
-0.92041016
-0.91918945
-0.91766357
-0.9161377
-0.91430664
-0.91217041
-0.91033936
-0.9085083
-0.90698242
-0.90576172
-0.90484619
-0.90393066
-0.90393066
-0.90393066
-0.90454102
-0.90545654
-0.90698242
-0.90881348
-0.91064453
-0.91278076
-0.91461182
-0.91644287
-0.91796875
-0.91918945
-0.92010498
-0.92071533
-0.92102051
-0.92132568
-0.92102051
-0.92071533
-0.92041016
-0.91949463
-0.91888428
-0.91796875
-0.9173584
-0.91674805
-0.9161377
-0.91552734
-0.91522217
-0.91552734
-0.91583252
-0.91644287
-0.91705322
-0.91796875
-0.9185791
-0.91949463
-0.9197998
-0.92010498
-0.92041016
-0.92041016
-0.92041016
-0.92041016
-0.92010498
-0.9197998
-0.91949463
-0.91918945
-0.9185791
-0.91827393
-0.91766357
-0.91705322
-0.91705322
-0.91674805
-0.91705322
-0.91766357
-0.91827393
-0.91918945
-0.92010498
-0.92071533
-0.92163086
-0.92254639
-0.92376709
-0.92529297
-0.92681885
-0.92834473
-0.92987061
-0.93139648
-0.93292236
-0.93444824
-0.93597412
-0.93719482
-0.93841553
-0.93902588
-0.93933105
-0.93933105
-0.93933105
-0.93933105
-0.93902588
-0.9387207
-0.93841553
-0.9375
-0.93658447
-0.93566895
-0.93475342
-0.93383789
-0.93292236
-0.93231201
-0.93139648
-0.93109131
-0.93078613
-0.93078613
-0.93048096
-0.93048096
-0.93017578
-0.93017578
-0.93017578
-0.93017578
-0.93048096
-0.93109131
-0.93170166
-0.93231201
-0.93261719
-0.93322754
-0.93353271
-0.93414307
-0.93475342
-0.93536377
-0.9362793
-0.9375
-0.9387207
-0.93963623
-0.94055176
-0.94146729
-0.94177246
-0.94207764
-0.94238281
-0.94238281
-0.94238281
-0.94177246
-0.94055176
-0.93902588
-0.93688965
-0.93505859
-0.93261719
-0.93017578
-0.92773438
-0.92498779
-0.92193604
-0.91949463
-0.91674805
-0.91430664
-0.91156006
-0.90911865
-0.90637207
-0.90362549
-0.90118408
-0.8984375
-0.89569092
-0.89263916
-0.88928223
-0.88623047
-0.88287354
-0.8795166
-0.87615967
-0.87310791
-0.86975098
-0.86669922
-0.86364746
-0.86090088
-0.85845947
-0.85632324
-0.85540771
-0.85510254
-0.85540771
-0.85632324
-0.85723877
-0.8581543
-0.85906982
-0.85968018
-0.85968018
-0.85998535
-0.85968018
-0.859375
-0.85845947
-0.85723877
-0.85540771
-0.85296631
-0.8505249
-0.84747314
-0.84442139
-0.8416748
-0.83862305
-0.83618164
-0.83374023
-0.831604
-0.83007812
-0.82885742
-0.82824707
-0.82794189
-0.82855225
-0.8291626
-0.8303833
-0.83190918
-0.83374023
-0.83557129
-0.8380127
-0.8404541
-0.84350586
-0.84655762
-0.85021973
-0.85418701
-0.85845947
-0.86303711
-0.8682251
-0.87341309
-0.87921143
-0.88531494
-0.89111328
-0.89691162
-0.90209961
-0.90698242
-0.91156006
-0.9161377
-0.92041016
-0.92407227
-0.9274292
-0.92956543
-0.93139648
-0.93292236
-0.93383789
-0.93475342
-0.93536377
-0.93597412
-0.93688965
-0.9375
-0.93841553
-0.93963623
-0.94055176
-0.94207764
-0.94390869
-0.94573975
-0.94787598
-0.95001221
-0.95214844
-0.95397949
-0.95581055
-0.95733643
-0.9588623
-0.95977783
-0.96069336
-0.96130371
-0.96191406
-0.96221924
-0.96252441
-0.96252441
-0.96252441
-0.96221924
-0.96160889
-0.96099854
-0.96038818
-0.96008301
-0.95947266
-0.95916748
-0.9588623
-0.95855713
-0.95825195
-0.95825195
-0.95825195
-0.95825195
-0.95825195
-0.95855713
-0.9588623
-0.95916748
-0.95977783
-0.96038818
-0.96099854
-0.96130371
-0.96160889
-0.96160889
-0.96160889
-0.96191406
-0.96221924
-0.96252441
-0.96282959
-0.96313477
-0.96313477
-0.96343994
-0.96405029
-0.96466064
-0.965271
-0.96557617
-0.96588135
-0.9664917
-0.96710205
-0.96801758
-0.96923828
-0.97015381
-0.97106934
-0.97137451
-0.97167969
-0.97167969
-0.97106934
-0.97045898
-0.96984863
-0.96893311
-0.9677124
-0.96618652
-0.96496582
-0.96374512
-0.96282959
-0.96252441
-0.96282959
-0.96374512
-0.965271
-0.9677124
-0.97106934
-0.97503662
-0.97961426
-0.98510742
-0.99121094
-0.99731445
-1.0037231
-1.0101318
-1.0162354
-1.0214233
-1.026001
-1.0290527
-1.0308838
-1.0305786
-1.0281372
-1.0235596
-1.0165405
-1.0070801
-0.99487305
-0.97961426
-0.96160889
-0.94024658
-0.91583252
-0.88745117
-0.85540771
-0.81970215
-0.78033447
-0.73760986
-0.69122314
-0.64117432
-0.58837891
-0.53283691
-0.47515869
-0.41656494
-0.35736084
-0.29907227
-0.24200439
-0.18798828
-0.13763428
-0.092468262
-0.053405762
-0.02166748
0.002746582
0.018920898
0.026855469
0.026245117
0.017089844
0
-0.025024414
-0.057067871
-0.09552002
-0.13916016
-0.18707275
-0.23773193
-0.28991699
-0.3427124
-0.39520264
-0.44616699
-0.49560547
-0.54229736
-0.58654785
-0.62744141
-0.66497803
-0.69885254
-0.72906494
-0.75592041
-0.77941895
-0.79956055
-0.81665039
-0.83099365
-0.84259033
-0.85174561
-0.859375
-0.86486816
-0.86914062
-0.87188721
-0.87341309
-0.87402344
-0.87371826
-0.87280273
-0.87127686
-0.86975098
-0.8682251
-0.86669922
-0.86547852
-0.86486816
-0.86456299
-0.86456299
-0.86517334
-0.86578369
-0.86700439
-0.86853027
-0.87005615
-0.87188721
-0.87402344
-0.87615967
-0.8782959
-0.88043213
-0.88256836
-0.88409424
-0.88562012
-0.887146
-0.88806152
-0.88928223
-0.88989258
-0.89050293
-0.89080811
-0.89111328
-0.89111328
-0.89111328
-0.89111328
-0.89080811
-0.89050293
-0.88989258
-0.8895874
-0.88928223
-0.88897705
-0.8883667
-0.88775635
-0.887146
-0.88623047
-0.88562012
-0.88500977
-0.88409424
-0.88317871
-0.88226318
-0.88134766
-0.8807373
-0.87982178
-0.87921143
-0.8782959
-0.87738037
-0.87646484
-0.87554932
-0.87463379
-0.87371826
-0.87310791
-0.87219238
-0.87158203
-0.87097168
-0.87036133
-0.8694458
-0.86883545
-0.8682251
-0.86761475
-0.86761475
-0.86730957
-0.86730957
-0.86730957
-0.86700439
-0.86669922
-0.86608887
-0.86517334
-0.86425781
-0.86334229
-0.86242676
-0.86151123
-0.86029053
-0.85876465
-0.85723877
-0.85540771
-0.85357666
-0.85144043
-0.8493042
-0.84747314
-0.84564209
-0.84411621
-0.84259033
-0.84106445
-0.83984375
-0.8392334
-0.83862305
-0.8380127
-0.83740234
-0.83709717
-0.83648682
-0.83587646
-0.83496094
-0.83404541
-0.83282471
-0.831604
-0.83007812
-0.82855225
-0.82702637
-0.82550049
-0.82397461
-0.82214355
-0.8203125
-0.81848145
-0.81695557
-0.81512451
-0.81359863
-0.81207275
-0.81085205
-0.80963135
-0.80841064
-0.80749512
-0.80627441
-0.80505371
-0.80383301
-0.80230713
-0.80078125
-0.7989502
-0.79742432
-0.79559326
-0.79345703
-0.79101562
-0.78857422
-0.78582764
-0.78277588
-0.77941895
-0.77575684
-0.77209473
-0.76843262
-0.76446533
-0.76049805
-0.75683594
-0.753479
-0.74981689
-0.74584961
-0.74188232
-0.73822021
-0.73455811
-0.730896
-0.72784424
-0.72479248
-0.72235107
-0.72021484
-0.71838379
-0.71655273
-0.71502686
-0.71350098
-0.7119751
-0.71044922
-0.70892334
-0.70739746
-0.70556641
-0.70404053
-0.7019043
-0.69976807
-0.69732666
-0.69488525
-0.69213867
-0.68908691
-0.68603516
-0.6829834
-0.67993164
-0.67657471
-0.67321777
-0.66986084
-0.66650391
-0.66345215
-0.66070557
-0.65826416
-0.65582275
-0.65338135
-0.65124512
-0.64910889
-0.64727783
-0.64575195
-0.64422607
-0.64300537
-0.64178467
-0.64025879
-0.63903809
-0.63781738
-0.6362915
-0.6350708
-0.6338501
-0.63262939
-0.63140869
-0.63018799
-0.62927246
-0.62866211
-0.62835693
-0.62866211
-0.62896729
-0.62988281
-0.63110352
-0.63262939
-0.6350708
-0.63812256
-0.64178467
-0.64605713
-0.65093994
-0.65643311
-0.66223145
-0.66833496
-0.67474365
-0.68115234
-0.68756104
-0.69396973
-0.70007324
-0.70617676
-0.7119751
-0.71777344
-0.72357178
-0.72937012
-0.73516846
-0.7409668
-0.74707031
-0.75286865
-0.75836182
-0.76416016
-0.76965332
-0.77575684
-0.78155518
-0.78765869
-0.79376221
-0.79925537
-0.80474854
-0.8102417
-0.81512451
-0.82000732
-0.82427979
-0.82824707
-0.831604
-0.83435059
-0.83679199
-0.83892822
-0.84075928
-0.84228516
-0.84381104
-0.84533691
-0.84716797
-0.84899902
-0.85144043
-0.85418701
-0.85723877
-0.86029053
-0.86334229
-0.86669922
-0.86975098
-0.87280273
-0.87615967
-0.87921143
-0.88226318
-0.88500977
-0.88775635
-0.89019775
-0.89202881
-0.89355469
-0.89477539
-0.89569092
-0.89630127
-0.89630127
-0.89630127
-0.89630127
-0.89599609
-0.89569092
-0.89569092
-0.89538574
-0.89477539
-0.89416504
-0.89355469
-0.89324951
-0.89294434
-0.89294434
-0.89324951
-0.89324951
-0.89355469
-0.89355469
-0.89324951
-0.89324951
-0.89324951
-0.89324951
-0.89324951
-0.89324951
-0.89294434
-0.89263916
-0.89202881
-0.89172363
-0.89111328
-0.89050293
-0.89050293
-0.89019775
-0.89050293
-0.89050293
-0.89050293
-0.89019775
-0.89019775
-0.88989258
-0.88989258
-0.88989258
-0.88989258
-0.8895874
-0.88928223
-0.88867188
-0.88775635
-0.88653564
-0.88500977
-0.88348389
-0.88195801
-0.88012695
-0.87860107
-0.87768555
-0.8770752
-0.87677002
-0.87677002
-0.87677002
-0.8770752
-0.87768555
-0.87799072
-0.87890625
-0.87982178
-0.8807373
-0.88165283
-0.88226318
-0.88256836
-0.88287354
-0.88287354
-0.88287354
-0.88287354
-0.88287354
-0.88226318
-0.88165283
-0.8807373
-0.8795166
-0.8782959
-0.87738037
-0.87646484
-0.87615967
-0.87585449
-0.87585449
-0.87554932
-0.87554932
-0.87554932
-0.87524414
-0.87463379
-0.87371826
-0.87310791
-0.87219238
-0.87158203
-0.8706665
-0.87005615
-0.86975098
-0.86975098
-0.8694458
-0.86975098
-0.87005615
-0.87036133
-0.8706665
-0.87097168
-0.87127686
-0.87158203
-0.87219238
-0.87310791
-0.87432861
-0.87524414
-0.87615967
-0.87677002
-0.8770752
-0.8770752
-0.8770752
-0.87677002
-0.87646484
-0.87615967
-0.87554932
-0.87493896
-0.87402344
-0.87310791
-0.87188721
-0.87097168
-0.87005615
-0.86914062
-0.86883545
-0.86883545
-0.86914062
-0.8694458
-0.87005615
-0.87097168
-0.87219238
-0.87371826
-0.87585449
-0.87768555
-0.87982178
-0.88134766
-0.88287354
-0.88378906
-0.88470459
-0.88531494
-0.88562012
-0.88592529
-0.88592529
-0.88592529
-0.88562012
-0.88531494
-0.88470459
-0.88409424
-0.88317871
-0.88226318
-0.88104248
-0.88012695
-0.8795166
-0.87890625
-0.87860107
-0.8782959
-0.8782959
-0.87799072
-0.87799072
-0.8782959
-0.8782959
-0.87860107
-0.87890625
-0.87921143
-0.87982178
-0.88012695
-0.88043213
-0.8807373
-0.8807373
-0.88043213
-0.88043213
-0.88012695
-0.88012695
-0.88012695
-0.87982178
-0.8795166
-0.87921143
-0.87860107
-0.8782959
-0.87768555
-0.87738037
-0.87738037
-0.87768555
-0.8782959
-0.8795166
-0.8807373
-0.88226318
-0.88409424
-0.88592529
-0.88775635
-0.88928223
-0.89080811
-0.89233398
-0.89324951
-0.89416504
-0.89477539
-0.89508057
-0.89508057
-0.89508057
-0.89477539
-0.89416504
-0.89355469
-0.89263916
-0.89233398
-0.89202881
-0.89172363
-0.89172363
-0.89172363
-0.89172363
-0.89172363
-0.89172363
-0.89172363
-0.89202881
-0.89233398
-0.89263916
-0.89294434
-0.89294434
-0.89233398
-0.89172363
-0.89111328
-0.89019775
-0.88897705
-0.88806152
-0.88684082
-0.88562012
-0.88470459
-0.88348389
-0.88256836
-0.88165283
-0.8807373
-0.87982178
-0.87890625
-0.87768555
-0.87677002
-0.87524414
-0.87371826
-0.87158203
-0.86975098
-0.86730957
-0.86486816
-0.86242676
-0.85968018
-0.85693359
-0.85418701
-0.85083008
-0.84747314
-0.84411621
-0.8404541
-0.83740234
-0.83435059
-0.831604
-0.8291626
-0.82672119
-0.82427979
-0.82244873
-0.82061768
-0.81939697
-0.81817627
-0.81726074
-0.81665039
-0.81573486
-0.81481934
-0.81329346
-0.81207275
-0.81054688
-0.809021
-0.80749512
-0.80596924
-0.80383301
-0.80200195
-0.79956055
-0.79711914
-0.79437256
-0.79193115
-0.78918457
-0.78643799
-0.78399658
-0.78186035
-0.7800293
-0.77850342
-0.77758789
-0.77697754
-0.77667236
-0.77697754
-0.77728271
-0.77819824
-0.77941895
-0.78125
-0.78338623
-0.78613281
-0.78918457
-0.7925415
-0.79620361
-0.8001709
-0.80444336
-0.80932617
-0.81481934
-0.82061768
-0.82672119
-0.83282471
-0.83862305
-0.84411621
-0.84991455
-0.85510254
-0.86029053
-0.86517334
-0.87005615
-0.87432861
-0.87799072
-0.88104248
-0.88378906
-0.88592529
-0.88745117
-0.88867188
-0.88928223
-0.89019775
-0.89050293
-0.89111328
-0.89202881
-0.89294434
-0.89416504
-0.89538574
-0.89691162
-0.89874268
-0.90057373
-0.90240479
-0.90393066
-0.90515137
-0.90637207
-0.9072876
-0.90820312
-0.90881348
-0.90942383
-0.90942383
-0.909729
-0.90942383
-0.90911865
-0.9085083
-0.90759277
-0.90637207
-0.90515137
-0.90423584
-0.90332031
-0.90240479
-0.90209961
-0.90209961
-0.90270996
-0.90332031
-0.90393066
-0.90484619
-0.90545654
-0.90576172
-0.90606689
-0.90637207
-0.90698242
-0.9072876
-0.90789795
-0.9085083
-0.90881348
-0.90911865
-0.90911865
-0.90881348
-0.9085083
-0.9085083
-0.90789795
-0.9072876
-0.90667725
-0.90576172
-0.90484619
-0.90423584
-0.90332031
-0.90270996
-0.90209961
-0.90148926
-0.90087891
-0.90026855
-0.89996338
-0.8996582
-0.89935303
-0.8996582
-0.89996338
-0.90026855
-0.90057373
-0.90087891
-0.90148926
-0.90179443
-0.90240479
-0.90270996
-0.90332031
-0.90393066
-0.90484619
-0.90545654
-0.90637207
-0.90698242
-0.9085083
-0.91003418
-0.91247559
-0.91552734
-0.91949463
-0.92407227
-0.92926025
-0.93536377
-0.94146729
-0.94818115
-0.95489502
-0.96191406
-0.96862793
-0.97503662
-0.98083496
-0.98571777
-0.98937988
-0.99151611
-0.99182129
-0.98999023
-0.98571777
-0.97930908
-0.97015381
-0.95825195
-0.94329834
-0.92468262
-0.90240479
-0.87646484
-0.84686279
-0.81329346
-0.77636719
-0.73577881
-0.6918335
-0.64422607
-0.59326172
-0.53894043
-0.48248291
-0.42388916
-0.36468506
-0.30517578
-0.24627686
-0.18890381
-0.13427734
-0.083618164
-0.038757324
0
0.03112793
0.054931641
0.070495605
0.077819824
0.076904297
0.068054199
0.051574707
0.027160645
-0.0039672852
-0.04119873
-0.083618164
-0.13031006
-0.18035889
-0.23162842
-0.2835083
-0.33477783
-0.38421631
-0.43151855
-0.47637939
-0.51818848
-0.55633545
-0.59112549
-0.62225342
-0.65002441
-0.6741333
-0.69519043
-0.71350098
-0.72906494
-0.74279785
-0.75469971
-0.76507568
-0.77423096
-0.7824707
-0.78948975
-0.79559326
-0.80108643
-0.80627441
-0.81085205
-0.81481934
-0.81878662
-0.82244873
-0.82550049
-0.82824707
-0.8303833
-0.83190918
-0.83282471
-0.83343506
-0.83374023
-0.83404541
-0.83404541
-0.83404541
-0.83374023
-0.83343506
-0.83312988
-0.83251953
-0.83221436
-0.831604
-0.831604
-0.83190918
-0.83282471
-0.83374023
-0.83496094
-0.83618164
-0.83709717
-0.83831787
-0.8392334
-0.83984375
-0.8404541
-0.84075928
-0.84075928
-0.84075928
-0.8404541
-0.8404541
-0.83984375
-0.8392334
-0.8380127
-0.83648682
-0.83526611
-0.83374023
-0.83251953
-0.83099365
-0.82977295
-0.82855225
-0.82763672
-0.82672119
-0.82611084
-0.82550049
-0.82519531
-0.82489014
-0.82458496
-0.82427979
-0.82366943
-0.82336426
-0.82275391
-0.82244873
-0.82183838
-0.8215332
-0.82092285
-0.82000732
-0.81939697
-0.81817627
-0.81726074
-0.81604004
-0.81481934
-0.81359863
-0.81237793
-0.81085205
-0.80963135
-0.80810547
-0.80688477
-0.80566406
-0.80474854
-0.80383301
-0.80291748
-0.80200195
-0.80078125
-0.79956055
-0.79833984
-0.79711914
-0.79589844
-0.79467773
-0.79376221
-0.79315186
-0.79284668
-0.79284668
-0.79315186
-0.79345703
-0.79406738
-0.79406738
-0.79406738
-0.79406738
-0.79376221
-0.79315186
-0.79284668
-0.7925415
-0.79223633
-0.79193115
-0.79162598
-0.79101562
-0.79040527
-0.78918457
-0.78765869
-0.78582764
-0.78399658
-0.78186035
-0.77972412
-0.77789307
-0.77606201
-0.77453613
-0.77270508
-0.7711792
-0.76934814
-0.76751709
-0.76538086
-0.7635498
-0.76141357
-0.75927734
-0.75683594
-0.75439453
-0.75195312
-0.74920654
-0.74645996
-0.7434082
-0.7409668
-0.73822021
-0.73608398
-0.73364258
-0.73120117
-0.72906494
-0.72662354
-0.7244873
-0.72174072
-0.71929932
-0.71685791
-0.7144165
-0.7119751
-0.70953369
-0.70678711
-0.70404053
-0.70098877
-0.69763184
-0.69396973
-0.69030762
-0.68634033
-0.68237305
-0.67871094
-0.67504883
-0.67169189
-0.66802979
-0.66467285
-0.66131592
-0.65826416
-0.6552124
-0.65246582
-0.64971924
-0.64727783
-0.64483643
-0.6427002
-0.64086914
-0.63903809
-0.63720703
-0.63568115
-0.63415527
-0.63232422
-0.63049316
-0.62866211
-0.62683105
-0.62469482
-0.62286377
-0.62072754
-0.61859131
-0.61645508
-0.61462402
-0.61309814
-0.61187744
-0.61065674
-0.60974121
-0.60852051
-0.6072998
-0.60577393
-0.60394287
-0.60241699
-0.60089111
-0.59936523
-0.59814453
-0.59692383
-0.5960083
-0.5947876
-0.59387207
-0.59326172
-0.59234619
-0.59173584
-0.59143066
-0.59112549
-0.59082031
-0.59112549
-0.59173584
-0.59295654
-0.5947876
-0.59753418
-0.60058594
-0.60424805
-0.60821533
-0.61248779
-0.61706543
-0.62194824
-0.62652588
-0.63140869
-0.63598633
-0.64086914
-0.64575195
-0.65093994
-0.65612793
-0.66162109
-0.66680908
-0.67199707
-0.67718506
-0.68237305
-0.68756104
-0.69244385
-0.69793701
-0.70343018
-0.70922852
-0.71563721
-0.7220459
-0.72906494
-0.73608398
-0.74310303
-0.75042725
-0.75744629
-0.76446533
-0.77148438
-0.77819824
-0.78491211
-0.79071045
-0.79620361
-0.80078125
-0.80474854
-0.80780029
-0.8102417
-0.81207275
-0.81329346
-0.81420898
-0.81451416
-0.81481934
-0.81512451
-0.81542969
-0.81573486
-0.81634521
-0.81726074
-0.81848145
-0.82000732
-0.82214355
-0.82427979
-0.82733154
-0.8303833
-0.83374023
-0.83740234
-0.84075928
-0.84411621
-0.84747314
-0.85021973
-0.85296631
-0.85479736
-0.85632324
-0.85723877
-0.85784912
-0.85784912
-0.85784912
-0.85754395
-0.85693359
-0.85662842
-0.85632324
-0.85601807
-0.85571289
-0.85571289
-0.85571289
-0.85571289
-0.85571289
-0.85601807
-0.85632324
-0.85662842
-0.85662842
-0.85632324
-0.85601807
-0.85571289
-0.85540771
-0.85510254
-0.85510254
-0.85449219
-0.85388184
-0.85327148
-0.85235596
-0.85174561
-0.85113525
-0.8505249
-0.84991455
-0.84899902
-0.84838867
-0.84747314
-0.84686279
-0.84655762
-0.84625244
-0.84625244
-0.84594727
-0.84594727
-0.84594727
-0.84594727
-0.84594727
-0.84594727
-0.84625244
-0.84686279
-0.84747314
-0.84777832
-0.84777832
-0.8480835
-0.84869385
-0.8493042
-0.84960938
-0.84991455
-0.84960938
-0.8493042
-0.84838867
-0.84777832
-0.84655762
-0.84533691
-0.84381104
-0.84197998
-0.83984375
-0.83770752
-0.83557129
-0.83343506
-0.831604
-0.82977295
-0.82824707
-0.82763672
-0.82733154
-0.82733154
-0.82794189
-0.8291626
-0.83007812
-0.831604
-0.83312988
-0.83526611
-0.83740234
-0.84014893
-0.84289551
-0.84594727
-0.84869385
-0.85113525
-0.85357666
-0.85479736
-0.85571289
-0.85540771
-0.85479736
-0.85388184
-0.85235596
-0.85083008
-0.84869385
-0.84625244
-0.84381104
-0.84106445
-0.83831787
-0.83618164
-0.83404541
-0.83251953
-0.83099365
-0.82946777
-0.82855225
-0.82794189
-0.82763672
-0.82794189
-0.82855225
-0.82977295
-0.83099365
-0.83251953
-0.83374023
-0.83526611
-0.83648682
-0.83770752
-0.8392334
-0.84075928
-0.84197998
-0.84320068
-0.84442139
-0.84594727
-0.84747314
-0.84869385
-0.85021973
-0.85144043
-0.85205078
-0.85266113
-0.85327148
-0.85327148
-0.85357666
-0.85357666
-0.85327148
-0.85296631
-0.85266113
-0.85174561
-0.85113525
-0.85021973
-0.84960938
-0.84899902
-0.84838867
-0.8480835
-0.84777832
-0.84747314
-0.84747314
-0.84747314
-0.84777832
-0.84777832
-0.84777832
-0.84777832
-0.84777832
-0.8480835
-0.84838867
-0.84869385
-0.84899902
-0.8493042
-0.84960938
-0.85021973
-0.85113525
-0.85205078
-0.85357666
-0.85540771
-0.85723877
-0.859375
-0.86120605
-0.86303711
-0.86425781
-0.86547852
-0.86639404
-0.86700439
-0.86730957
-0.86700439
-0.86639404
-0.86486816
-0.86303711
-0.8605957
-0.85754395
-0.85449219
-0.85113525
-0.84747314
-0.84381104
-0.8404541
-0.83740234
-0.83465576
-0.83221436
-0.83007812
-0.82794189
-0.82580566
-0.82397461
-0.82244873
-0.82092285
-0.81970215
-0.81878662
-0.81787109
-0.81726074
-0.81634521
-0.81512451
-0.81390381
-0.81268311
-0.81115723
-0.80993652
-0.80871582
-0.80718994
-0.80596924
-0.80474854
-0.80352783
-0.80230713
-0.80078125
-0.79925537
-0.79742432
-0.79559326
-0.79345703
-0.7913208
-0.78918457
-0.78674316
-0.78430176
-0.78186035
-0.77880859
-0.77606201
-0.77301025
-0.77026367
-0.76721191
-0.76446533
-0.76171875
-0.75897217
-0.75683594
-0.75500488
-0.753479
-0.75256348
-0.7522583
-0.7522583
-0.75256348
-0.753479
-0.75500488
-0.75714111
-0.7598877
-0.76293945
-0.76660156
-0.77056885
-0.77514648
-0.7800293
-0.78552246
-0.79101562
-0.79681396
-0.80291748
-0.80871582
-0.81451416
-0.8203125
-0.82611084
-0.831604
-0.83709717
-0.84259033
-0.84747314
-0.85205078
-0.85662842
-0.8605957
-0.86456299
-0.8682251
-0.87158203
-0.87493896
-0.87799072
-0.88104248
-0.88409424
-0.88653564
-0.88897705
-0.89111328
-0.89294434
-0.89447021
-0.89599609
-0.8972168
-0.89813232
-0.89904785
-0.89935303
-0.8996582
-0.8996582
-0.89935303
-0.89904785
-0.89874268
-0.8984375
-0.89813232
-0.89782715
-0.89752197
-0.8972168
-0.89691162
-0.89630127
-0.89569092
-0.89538574
-0.89538574
-0.89508057
-0.89477539
-0.89447021
-0.89416504
-0.89385986
-0.89355469
-0.89294434
-0.89202881
-0.89111328
-0.89019775
-0.88928223
-0.88897705
-0.88897705
-0.88928223
-0.88989258
-0.89050293
-0.89141846
-0.89233398
-0.89324951
-0.89416504
-0.89508057
-0.89599609
-0.89660645
-0.8972168
-0.89752197
-0.89752197
-0.89752197
-0.89752197
-0.89691162
-0.89599609
-0.89508057
-0.89416504
-0.89324951
-0.89233398
-0.89172363
-0.89080811
-0.88989258
-0.88928223
-0.88867188
-0.8883667
-0.8883667
-0.8883667
-0.8883667
-0.8883667
-0.88806152
-0.88775635
-0.887146
-0.88653564
-0.88592529
-0.88531494
-0.88500977
-0.88531494
-0.88592529
-0.88745117
-0.8895874
-0.89263916
-0.89630127
-0.90118408
-0.90698242
-0.91400146
-0.92163086
-0.92987061
-0.9387207
-0.94726562
-0.95581055
-0.96343994
-0.97015381
-0.97595215
-0.98022461
-0.98297119
-0.98388672
-0.98266602
-0.97961426
-0.97412109
-0.96618652
-0.95550537
-0.94207764
-0.92559814
-0.90606689
-0.88348389
-0.85784912
-0.8291626
-0.79711914
-0.76171875
-0.72265625
-0.68023682
-0.63446045
-0.58502197
-0.53253174
-0.4776001
-0.4208374
-0.36315918
-0.30487061
-0.24688721
-0.19042969
-0.1361084
-0.08605957
-0.04119873
-0.0033569336
0.026855469
0.048522949
0.061645508
0.066223145
0.061950684
0.049438477
0.028381348
-0.00061035156
-0.036621094
-0.078735352
-0.1260376
-0.17669678
-0.22949219
-0.28320312
-0.33630371
-0.38818359
-0.43762207
-0.48431396
-0.52703857
-0.5657959
-0.60028076
-0.63049316
-0.65673828
-0.67901611
-0.69763184
-0.7131958
-0.72631836
-0.73760986
-0.74707031
-0.75592041
-0.76385498
-0.7711792
-0.77758789
-0.78369141
-0.78948975
-0.79467773
-0.79986572
-0.80474854
-0.80932617
-0.81359863
-0.81726074
-0.82000732
-0.82214355
-0.82336426
-0.82397461
-0.82397461
-0.82366943
-0.82275391
-0.82122803
-0.81970215
-0.81817627
-0.81665039
-0.81512451
-0.81390381
-0.81298828
-0.81237793
-0.81207275
-0.81207275
-0.81268311
-0.81359863
-0.81481934
-0.81634521
-0.81817627
-0.82000732
-0.82183838
-0.82366943
-0.82519531
-0.82672119
-0.82794189
-0.82855225
-0.82855225
-0.82824707
-0.82733154
-0.82641602
-0.82550049
-0.82427979
-0.82305908
-0.82183838
-0.82061768
-0.81939697
-0.81817627
-0.81695557
-0.81604004
-0.81512451
-0.81390381
-0.81298828
-0.81268311
-0.81268311
-0.81298828
-0.81390381
-0.81481934
-0.81604004
-0.81695557
-0.81817627
-0.8190918
-0.82000732
-0.82092285
-0.82183838
-0.82275391
-0.82366943
-0.82458496
-0.82489014
-0.82519531
-0.82519531
-0.82489014
-0.82427979
-0.82305908
-0.82183838
-0.8203125
-0.81848145
-0.81665039
-0.81512451
-0.81329346
-0.8114624
-0.80993652
-0.80810547
-0.80627441
-0.80444336
-0.8026123
-0.80078125
-0.7989502
-0.79711914
-0.79559326
-0.79406738
-0.79223633
-0.79101562
-0.78948975
-0.78796387
-0.78613281
-0.78430176
-0.78216553
-0.78033447
-0.77850342
-0.77728271
-0.77575684
-0.77453613
-0.77362061
-0.7723999
-0.77148438
-0.77056885
-0.76965332
-0.76873779
-0.76782227
-0.76690674
-0.76568604
-0.76446533
-0.76324463
-0.76171875
-0.76019287
-0.75866699
-0.75683594
-0.75500488
-0.75317383
-0.75134277
-0.74920654
-0.74737549
-0.74493408
-0.74249268
-0.74005127
-0.73760986
-0.73516846
-0.73272705
-0.73059082
-0.72875977
-0.72723389
-0.72570801
-0.72418213
-0.72235107
-0.7208252
-0.71929932
-0.71777344
-0.71624756
-0.71502686
-0.71380615
-0.71258545
-0.71136475
-0.70953369
-0.70770264
-0.70556641
-0.703125
-0.70098877
-0.69824219
-0.69549561
-0.69274902
-0.68969727
-0.68634033
-0.68328857
-0.67962646
-0.67596436
-0.67230225
-0.66833496
-0.66467285
-0.66070557
-0.65704346
-0.65338135
-0.65002441
-0.64666748
-0.64361572
-0.64086914
-0.63812256
-0.63537598
-0.63232422
-0.62957764
-0.62683105
-0.62438965
-0.62194824
-0.62011719
-0.61798096
-0.61645508
-0.61462402
-0.61309814
-0.61157227
-0.61004639
-0.60882568
-0.60760498
-0.60668945
-0.6060791
-0.60546875
-0.6048584
-0.60424805
-0.6036377
-0.60272217
-0.60180664
-0.60089111
-0.59967041
-0.59875488
-0.59783936
-0.59692383
-0.59631348
-0.5960083
-0.59539795
-0.59509277
-0.59448242
-0.59448242
-0.59509277
-0.5960083
-0.59783936
-0.59967041
-0.60241699
-0.60516357
-0.60852051
-0.61187744
-0.61584473
-0.62011719
-0.62438965
-0.62896729
-0.6338501
-0.63842773
-0.64331055
-0.64849854
-0.65338135
-0.65856934
-0.66375732
-0.66925049
-0.67504883
-0.68084717
-0.68664551
-0.69244385
-0.69824219
-0.70404053
-0.70983887
-0.71533203
-0.7208252
-0.72631836
-0.73150635
-0.73669434
-0.74157715
-0.74615479
-0.75073242
-0.75500488
-0.75958252
-0.7635498
-0.76751709
-0.7711792
-0.77514648
-0.77880859
-0.7824707
-0.78643799
-0.79040527
-0.79406738
-0.79742432
-0.80047607
-0.80352783
-0.80657959
-0.80993652
-0.81298828
-0.81604004
-0.81878662
-0.8215332
-0.82427979
-0.82702637
-0.82946777
-0.83190918
-0.83435059
-0.83679199
-0.83892822
-0.84106445
-0.84259033
-0.84381104
-0.84503174
-0.84594727
-0.84686279
-0.84747314
-0.84838867
-0.84869385
-0.84869385
-0.84838867
-0.8480835
-0.84747314
-0.84686279
-0.84625244
-0.84594727
-0.84564209
-0.84503174
-0.84472656
-0.84442139
-0.84381104
-0.84381104
-0.84381104
-0.84350586
-0.84350586
-0.84320068
-0.84289551
-0.84289551
-0.84289551
-0.84289551
-0.84289551
-0.84320068
-0.84381104
-0.84411621
-0.84472656
-0.84503174
-0.84533691
-0.84533691
-0.84503174
-0.84472656
-0.84442139
-0.84411621
-0.84350586
-0.84320068
-0.84259033
-0.84197998
-0.84106445
-0.84014893
-0.8392334
-0.8380127
-0.83679199
-0.83557129
-0.83435059
-0.83312988
-0.83190918
-0.83129883
-0.83068848
-0.8303833
-0.82977295
-0.82946777
-0.82885742
-0.82824707
-0.82794189
-0.82733154
-0.82702637
-0.82641602
-0.82611084
-0.82580566
-0.82580566
-0.82580566
-0.82641602
-0.82702637
-0.82794189
-0.8291626
-0.8303833
-0.83129883
-0.83251953
-0.83374023
-0.83465576
-0.83557129
-0.83648682
-0.83679199
-0.83709717
-0.83709717
-0.83709717
-0.83709717
-0.83679199
-0.83618164
-0.83526611
-0.83435059
-0.83312988
-0.83221436
-0.83129883
-0.8303833
-0.82946777
-0.8291626
-0.82885742
-0.82885742
-0.82885742
-0.8291626
-0.82946777
-0.82977295
-0.8303833
-0.83068848
-0.83099365
-0.83129883
-0.83129883
-0.83099365
-0.83068848
-0.83068848
-0.8303833
-0.8303833
-0.8303833
-0.83007812
-0.83007812
-0.83007812
-0.83007812
-0.82977295
-0.82946777
-0.82885742
-0.82855225
-0.82794189
-0.82763672
-0.82733154
-0.82672119
-0.82641602
-0.82580566
-0.82550049
-0.82519531
-0.82489014
-0.82458496
-0.82458496
-0.82489014
-0.82489014
-0.82550049
-0.82580566
-0.82641602
-0.82733154
-0.82794189
-0.82885742
-0.82977295
-0.8303833
-0.83099365
-0.831604
-0.83221436
-0.83251953
-0.83282471
-0.83282471
-0.83221436
-0.831604
-0.83099365
-0.83007812
-0.82946777
-0.8291626
-0.8291626
-0.8291626
-0.8291626
-0.82946777
-0.82946777
-0.83007812
-0.8303833
-0.83129883
-0.83190918
-0.83282471
-0.83404541
-0.83496094
-0.83618164
-0.83740234
-0.83831787
-0.83892822
-0.83953857
-0.84014893
-0.8404541
-0.84075928
-0.84106445
-0.84136963
-0.8416748
-0.8416748
-0.8416748
-0.84136963
-0.84106445
-0.84075928
-0.8404541
-0.84014893
-0.83953857
-0.83862305
-0.83740234
-0.83557129
-0.83343506
-0.83099365
-0.82855225
-0.82550049
-0.82214355
-0.81848145
-0.81451416
-0.8102417
-0.80627441
-0.80169678
-0.79742432
-0.79284668
-0.78857422
-0.78460693
-0.78094482
-0.77728271
-0.77392578
-0.7711792
-0.76843262
-0.76629639
-0.76477051
-0.7635498
-0.76293945
-0.7623291
-0.7623291
-0.7623291
-0.7623291
-0.76263428
-0.76293945
-0.76324463
-0.76324463
-0.76263428
-0.76141357
-0.7598877
-0.75775146
-0.75561523
-0.75286865
-0.74981689
-0.74645996
-0.74279785
-0.73913574
-0.73516846
-0.73150635
-0.72784424
-0.72479248
-0.72174072
-0.71960449
-0.71777344
-0.71655273
-0.71624756
-0.71685791
-0.71807861
-0.71990967
-0.72235107
-0.72570801
-0.72967529
-0.73425293
-0.73944092
-0.74493408
-0.75073242
-0.75714111
-0.7635498
-0.77026367
-0.77728271
-0.78460693
-0.79193115
-0.7989502
-0.80596924
-0.81237793
-0.81817627
-0.82336426
-0.82794189
-0.83221436
-0.83587646
-0.83892822
-0.84136963
-0.84350586
-0.84533691
-0.84716797
-0.84838867
-0.84960938
-0.85083008
-0.85205078
-0.85296631
-0.85418701
-0.85510254
-0.85662842
-0.85784912
-0.85906982
-0.8605957
-0.86212158
-0.86364746
-0.86517334
-0.86669922
-0.8682251
-0.86914062
-0.86975098
-0.87005615
-0.87005615
-0.86975098
-0.86914062
-0.86853027
-0.8682251
-0.86761475
-0.86730957
-0.86700439
-0.86669922
-0.86608887
-0.86517334
-0.86456299
-0.86364746
-0.86303711
-0.86242676
-0.86242676
-0.86273193
-0.86303711
-0.86364746
-0.86425781
-0.86486816
-0.86517334
-0.86578369
-0.86578369
-0.86608887
-0.86669922
-0.86700439
-0.86700439
-0.86730957
-0.86730957
-0.86730957
-0.86730957
-0.86730957
-0.86761475
-0.86761475
-0.86791992
-0.8682251
-0.86853027
-0.86883545
-0.8694458
-0.87005615
-0.8706665
-0.87127686
-0.87219238
-0.87310791
-0.87402344
-0.87463379
-0.87524414
-0.87554932
-0.87554932
-0.87524414
-0.87463379
-0.87432861
-0.87402344
-0.87371826
-0.87371826
-0.87371826
-0.87402344
-0.87463379
-0.87524414
-0.87585449
-0.8770752
-0.87860107
-0.8807373
-0.88348389
-0.887146
-0.89141846
-0.89660645
-0.90240479
-0.90881348
-0.91522217
-0.92132568
-0.92681885
-0.93200684
-0.9362793
-0.93994141
-0.94268799
-0.94390869
-0.94421387
-0.94238281
-0.93902588
-0.93322754
-0.92559814
-0.91552734
-0.90270996
-0.88745117
-0.86883545
-0.84716797
-0.82183838
-0.79315186
-0.76049805
-0.72387695
-0.68389893
-0.63995361
-0.59234619
-0.54107666
-0.48675537
-0.42938232
-0.36987305
-0.30914307
-0.24810791
-0.18768311
-0.12908936
-0.073852539
-0.023193359
0.02166748
0.059509277
0.089111328
0.11047363
0.12298584
0.12664795
0.12145996
0.10742188
0.085144043
0.054626465
0.017089844
-0.026550293
-0.075073242
-0.1272583
-0.18157959
-0.23651123
-0.29144287
-0.34515381
-0.39672852
-0.44586182
-0.49163818
-0.53375244
-0.57189941
-0.60638428
-0.63659668
-0.66314697
-0.68603516
-0.70587158
-0.72235107
-0.73577881
-0.74676514
-0.75592041
-0.76293945
-0.76873779
-0.77301025
-0.77667236
-0.77911377
-0.78125
-0.78308105
-0.78399658
-0.78460693
-0.78491211
-0.78491211
-0.78460693
-0.78430176
-0.78430176
-0.78460693
-0.78460693
-0.78521729
-0.78582764
-0.78674316
-0.78765869
-0.78887939
-0.78979492
-0.79071045
-0.79162598
-0.79284668
-0.79406738
-0.79528809
-0.79681396
-0.79833984
-0.79986572
-0.8013916
-0.8026123
-0.80413818
-0.80566406
-0.80657959
-0.80718994
-0.80780029
-0.80780029
-0.80749512
-0.80749512
-0.80718994
-0.80718994
-0.80688477
-0.80627441
-0.80596924
-0.80535889
-0.80474854
-0.80383301
-0.80352783
-0.80291748
-0.8026123
-0.80230713
-0.80230713
-0.80200195
-0.8013916
-0.80108643
-0.80078125
-0.80047607
-0.8001709
-0.79956055
-0.7989502
-0.79833984
-0.79711914
-0.79620361
-0.79498291
-0.79345703
-0.79193115
-0.79040527
-0.78887939
-0.78735352
-0.78582764
-0.78399658
-0.78216553
-0.78033447
-0.77819824
-0.77667236
-0.77484131
-0.77331543
-0.77178955
-0.77056885
-0.76965332
-0.76873779
-0.76812744
-0.76782227
-0.76751709
-0.76751709
-0.76751709
-0.76782227
-0.76843262
-0.76904297
-0.76965332
-0.77026367
-0.77087402
-0.77087402
-0.7711792
-0.77087402
-0.77056885
-0.77026367
-0.76934814
-0.76843262
-0.76690674
-0.76538086
-0.7635498
-0.76141357
-0.75927734
-0.75714111
-0.75500488
-0.75286865
-0.7510376
-0.74920654
-0.74707031
-0.74523926
-0.7434082
-0.74157715
-0.74005127
-0.73852539
-0.73699951
-0.73516846
-0.7333374
-0.73150635
-0.72937012
-0.72753906
-0.72540283
-0.72357178
-0.72174072
-0.71990967
-0.71777344
-0.71594238
-0.71380615
-0.71166992
-0.70953369
-0.70709229
-0.70465088
-0.70220947
-0.69946289
-0.69702148
-0.69458008
-0.69213867
-0.68969727
-0.68756104
-0.68511963
-0.68267822
-0.67993164
-0.67749023
-0.67474365
-0.67199707
-0.66925049
-0.66619873
-0.66314697
-0.66040039
-0.65734863
-0.65460205
-0.65155029
-0.64849854
-0.64544678
-0.64208984
-0.63873291
-0.63537598
-0.63232422
-0.62896729
-0.62561035
-0.62255859
-0.61950684
-0.61645508
-0.6137085
-0.61065674
-0.60791016
-0.60516357
-0.60241699
-0.59997559
-0.597229
-0.5947876
-0.59234619
-0.59020996
-0.58807373
-0.58624268
-0.5847168
-0.58288574
-0.58135986
-0.57952881
-0.57800293
-0.57678223
-0.57525635
-0.57403564
-0.57281494
-0.57159424
-0.57006836
-0.56854248
-0.56671143
-0.56518555
-0.56335449
-0.56182861
-0.56030273
-0.55908203
-0.5581665
-0.55725098
-0.55633545
-0.5557251
-0.55541992
-0.5557251
-0.55603027
-0.5569458
-0.5581665
-0.55999756
-0.56213379
-0.56518555
-0.5682373
-0.57189941
-0.57556152
-0.57952881
-0.58349609
-0.58776855
-0.59234619
-0.597229
-0.60211182
-0.6072998
-0.61248779
-0.61798096
-0.62347412
-0.62896729
-0.63476562
-0.64025879
-0.64575195
-0.65124512
-0.65673828
-0.66223145
-0.66802979
-0.67382812
-0.67993164
-0.68603516
-0.6918335
-0.69763184
-0.70343018
-0.70892334
-0.7144165
-0.71990967
-0.72540283
-0.73059082
-0.73577881
-0.7409668
-0.74615479
-0.75073242
-0.75531006
-0.75927734
-0.76293945
-0.76660156
-0.76965332
-0.7723999
-0.77514648
-0.77758789
-0.78033447
-0.78277588
-0.78521729
-0.78765869
-0.7901001
-0.7925415
-0.79467773
-0.79681396
-0.79864502
-0.80078125
-0.8026123
-0.80444336
-0.80627441
-0.80810547
-0.80993652
-0.8114624
-0.81298828
-0.81451416
-0.81542969
-0.81634521
-0.81695557
-0.81756592
-0.81756592
-0.81756592
-0.81726074
-0.81695557
-0.81695557
-0.81665039
-0.81634521
-0.81604004
-0.81604004
-0.81573486
-0.81542969
-0.81512451
-0.81481934
-0.81451416
-0.81420898
-0.81420898
-0.81420898
-0.81420898
-0.81451416
-0.81512451
-0.81604004
-0.81695557
-0.81817627
-0.8190918
-0.8203125
-0.82122803
-0.82244873
-0.82336426
-0.82427979
-0.82519531
-0.82611084
-0.82672119
-0.82702637
-0.82702637
-0.82702637
-0.82641602
-0.82580566
-0.82519531
-0.82427979
-0.82305908
-0.82183838
-0.8203125
-0.81878662
-0.81726074
-0.81573486
-0.81451416
-0.81298828
-0.81176758
-0.81054688
-0.80963135
-0.80871582
-0.80780029
-0.80718994
-0.80657959
-0.80596924
-0.80505371
-0.80474854
-0.80413818
-0.80383301
-0.80352783
-0.80322266
-0.80322266
-0.80352783
-0.80413818
-0.80505371
-0.80596924
-0.80688477
-0.80749512
-0.80810547
-0.80871582
-0.809021
-0.80963135
-0.80993652
-0.81054688
-0.81085205
-0.81085205
-0.81085205
-0.81085205
-0.81054688
-0.8102417
-0.80993652
-0.80932617
-0.80871582
-0.80810547
-0.80749512
-0.80718994
-0.80688477
-0.80657959
-0.80627441
-0.80596924
-0.80535889
-0.80444336
-0.80352783
-0.8026123
-0.80169678
-0.80078125
-0.79956055
-0.79833984
-0.79742432
-0.79620361
-0.79528809
-0.79467773
-0.79406738
-0.79376221
-0.79406738
-0.79437256
-0.79498291
-0.79559326
-0.79650879
-0.79711914
-0.79803467
-0.79864502
-0.7989502
-0.79956055
-0.8001709
-0.80047607
-0.80108643
-0.8013916
-0.8013916
-0.8013916
-0.80108643
-0.80047607
-0.8001709
-0.79986572
-0.79925537
-0.7989502
-0.7989502
-0.7989502
-0.79925537
-0.79956055
-0.8001709
-0.80108643
-0.80230713
-0.80352783
-0.80474854
-0.80566406
-0.80657959
-0.80749512
-0.80841064
-0.809021
-0.80993652
-0.81085205
-0.8114624
-0.81207275
-0.81237793
-0.81268311
-0.81268311
-0.81268311
-0.81298828
-0.81268311
-0.81268311
-0.81237793
-0.81207275
-0.81176758
-0.8114624
-0.81085205
-0.8102417
-0.80963135
-0.809021
-0.80871582
-0.80841064
-0.80810547
-0.80780029
-0.80780029
-0.80780029
-0.80780029
-0.80780029
-0.80810547
-0.80871582
-0.80932617
-0.80993652
-0.81085205
-0.81176758
-0.81268311
-0.81359863
-0.81451416
-0.81542969
-0.81634521
-0.81695557
-0.81756592
-0.81817627
-0.81878662
-0.81878662
-0.81878662
-0.81878662
-0.81878662
-0.81848145
-0.81848145
-0.81848145
-0.81848145
-0.81848145
-0.81878662
-0.8190918
-0.81970215
-0.8203125
-0.82092285
-0.82183838
-0.82244873
-0.82305908
-0.82366943
-0.82427979
-0.82489014
-0.82550049
-0.82580566
-0.82611084
-0.82641602
-0.82672119
-0.82641602
-0.82611084
-0.82550049
-0.82427979
-0.82305908
-0.82183838
-0.8203125
-0.81878662
-0.81726074
-0.81542969
-0.81390381
-0.81207275
-0.81054688
-0.80871582
-0.80688477
-0.80505371
-0.80352783
-0.80169678
-0.80047607
-0.7989502
-0.79772949
-0.79620361
-0.79437256
-0.7925415
-0.7901001
-0.78796387
-0.78521729
-0.7824707
-0.77972412
-0.77667236
-0.77362061
-0.7699585
-0.76629639
-0.7623291
-0.75866699
-0.75500488
-0.75164795
-0.74859619
-0.74523926
-0.7421875
-0.73944092
-0.73699951
-0.73547363
-0.73425293
-0.73364258
-0.73364258
-0.73394775
-0.73425293
-0.73455811
-0.73516846
-0.73547363
-0.73608398
-0.73638916
-0.73669434
-0.73699951
-0.73699951
-0.73669434
-0.73608398
-0.73516846
-0.73394775
-0.7321167
-0.73028564
-0.72784424
-0.72509766
-0.72235107
-0.71960449
-0.71685791
-0.7144165
-0.71258545
-0.71105957
-0.71044922
-0.71014404
-0.71014404
-0.71044922
-0.71136475
-0.71289062
-0.71502686
-0.71807861
-0.7220459
-0.72631836
-0.73150635
-0.73699951
-0.74310303
-0.74920654
-0.75561523
-0.76202393
-0.76843262
-0.77484131
-0.78125
-0.78704834
-0.7925415
-0.79772949
-0.8026123
-0.80688477
-0.81085205
-0.81451416
-0.81756592
-0.82000732
-0.82214355
-0.82397461
-0.82550049
-0.82702637
-0.82855225
-0.83007812
-0.83129883
-0.83251953
-0.83374023
-0.83496094
-0.83618164
-0.83770752
-0.83892822
-0.84075928
-0.84259033
-0.84442139
-0.84625244
-0.84777832
-0.8493042
-0.8505249
-0.85144043
-0.85174561
-0.85205078
-0.85205078
-0.85205078
-0.85174561
-0.85144043
-0.85113525
-0.8505249
-0.84991455
-0.84899902
-0.84838867
-0.84747314
-0.84716797
-0.84655762
-0.84625244
-0.84625244
-0.84655762
-0.84686279
-0.84747314
-0.84838867
-0.84899902
-0.84960938
-0.84991455
-0.85021973
-0.85083008
-0.85113525
-0.85113525
-0.85144043
-0.85144043
-0.85144043
-0.85144043
-0.85174561
-0.85174561
-0.85144043
-0.85144043
-0.85144043
-0.85144043
-0.85144043
-0.85174561
-0.85205078
-0.85235596
-0.85296631
-0.85327148
-0.85388184
-0.85418701
-0.85418701
-0.85418701
-0.85388184
-0.85357666
-0.85296631
-0.85266113
-0.85235596
-0.85174561
-0.85144043
-0.85113525
-0.8505249
-0.85021973
-0.84991455
-0.84991455
-0.85021973
-0.85144043
-0.85266113
-0.85479736
-0.85754395
-0.86120605
-0.86547852
-0.87036133
-0.87615967
-0.88226318
-0.88897705
-0.89569092
-0.90240479
-0.90881348
-0.91522217
-0.92071533
-0.92559814
-0.92987061
-0.93261719
-0.93414307
-0.93383789
-0.93200684
-0.92803955
-0.92163086
-0.91308594
-0.90179443
-0.88745117
-0.86975098
-0.84869385
-0.82366943
-0.79498291
-0.76202393
-0.72509766
-0.68389893
-0.63842773
-0.58929443
-0.53649902
-0.48034668
-0.4208374
-0.35919189
-0.29632568
-0.2331543
-0.17120361
-0.11108398
-0.054016113
-0.0015258789
0.045471191
0.085754395
0.1184082
0.14343262
0.16021729
0.16876221
0.16845703
0.15991211
0.14312744
0.11810303
0.085754395
0.04699707
0.002746582
-0.046081543
-0.097961426
-0.15197754
-0.206604
-0.26123047
-0.31494141
-0.36743164
-0.41717529
-0.46417236
-0.50842285
-0.54901123
-0.58624268
-0.61981201
-0.64941406
-0.675354
-0.69702148
-0.71533203
-0.73028564
-0.74188232
-0.75073242
-0.75714111
-0.76141357
-0.76385498
-0.76538086
-0.76538086
-0.76477051
-0.76324463
-0.76141357
-0.75927734
-0.75744629
-0.75561523
-0.75408936
-0.753479
-0.75286865
-0.75317383
-0.75378418
-0.75500488
-0.75653076
-0.75805664
-0.76019287
-0.76263428
-0.76507568
-0.76812744
-0.77087402
-0.77362061
-0.77606201
-0.77819824
-0.77972412
-0.78094482
-0.78186035
-0.7824707
-0.78308105
-0.78338623
-0.78369141
-0.78399658
-0.78430176
-0.78460693
-0.78521729
-0.78613281
-0.78704834
-0.78796387
-0.78918457
-0.79040527
-0.7913208
-0.79223633
-0.79284668
-0.79345703
-0.79406738
-0.79406738
-0.79406738
-0.79376221
-0.79345703
-0.7925415
-0.79162598
-0.79040527
-0.78918457
-0.78765869
-0.78613281
-0.78460693
-0.78308105
-0.78216553
-0.78125
-0.78063965
-0.78063965
-0.78063965
-0.78094482
-0.78155518
-0.78216553
-0.7824707
-0.78277588
-0.7824707
-0.78186035
-0.78125
-0.7800293
-0.77880859
-0.77758789
-0.77606201
-0.77453613
-0.77270508
-0.77087402
-0.76873779
-0.76660156
-0.76477051
-0.76293945
-0.76141357
-0.7598877
-0.75866699
-0.75744629
-0.75622559
-0.75500488
-0.75378418
-0.75256348
-0.75164795
-0.75042725
-0.74981689
-0.74890137
-0.74798584
-0.74707031
-0.74615479
-0.74493408
-0.74401855
-0.74279785
-0.74157715
-0.74066162
-0.73974609
-0.73883057
-0.73822021
-0.73730469
-0.73669434
-0.73577881
-0.73486328
-0.73394775
-0.73272705
-0.73181152
-0.730896
-0.72967529
-0.72845459
-0.72723389
-0.72601318
-0.7244873
-0.72296143
-0.72143555
-0.71960449
-0.71777344
-0.71594238
-0.71411133
-0.71258545
-0.71075439
-0.70892334
-0.70709229
-0.70526123
-0.70343018
-0.70129395
-0.69915771
-0.69702148
-0.69488525
-0.69274902
-0.69061279
-0.68786621
-0.68511963
-0.68206787
-0.67901611
-0.67596436
-0.67260742
-0.66925049
-0.66589355
-0.66253662
-0.65948486
-0.65612793
-0.652771
-0.64971924
-0.64666748
-0.64361572
-0.64086914
-0.63781738
-0.63476562
-0.63201904
-0.62957764
-0.62744141
-0.625
-0.62316895
-0.62103271
-0.61920166
-0.61706543
-0.6149292
-0.61248779
-0.61004639
-0.60699463
-0.60394287
-0.60089111
-0.59783936
-0.59448242
-0.59112549
-0.58776855
-0.5847168
-0.58166504
-0.57861328
-0.57556152
-0.57250977
-0.57006836
-0.56762695
-0.56549072
-0.56365967
-0.56243896
-0.56121826
-0.55999756
-0.55938721
-0.55877686
-0.5581665
-0.55755615
-0.5569458
-0.55603027
-0.55541992
-0.55450439
-0.55358887
-0.55236816
-0.55145264
-0.54992676
-0.54840088
-0.54718018
-0.54595947
-0.54534912
-0.54504395
-0.54534912
-0.54595947
-0.546875
-0.54840088
-0.55023193
-0.55267334
-0.5557251
-0.55938721
-0.56335449
-0.56762695
-0.57281494
-0.57800293
-0.58349609
-0.58929443
-0.59570312
-0.60211182
-0.60852051
-0.61523438
-0.62225342
-0.62896729
-0.63598633
-0.6427002
-0.64910889
-0.6552124
-0.66162109
-0.66772461
-0.6741333
-0.68023682
-0.68603516
-0.6918335
-0.69763184
-0.70343018
-0.70892334
-0.71472168
-0.72021484
-0.72540283
-0.73028564
-0.73486328
-0.73944092
-0.7434082
-0.74737549
-0.75134277
-0.75500488
-0.75836182
-0.76141357
-0.76446533
-0.76721191
-0.7699585
-0.77209473
-0.77423096
-0.77606201
-0.77758789
-0.77941895
-0.78094482
-0.7824707
-0.78430176
-0.78582764
-0.78765869
-0.78948975
-0.7913208
-0.79345703
-0.79559326
-0.79742432
-0.79956055
-0.8013916
-0.80322266
-0.80505371
-0.80657959
-0.80810547
-0.80963135
-0.81085205
-0.81237793
-0.81390381
-0.81512451
-0.81634521
-0.81726074
-0.81817627
-0.81878662
-0.81939697
-0.82000732
-0.82061768
-0.82122803
-0.82183838
-0.82244873
-0.82336426
-0.82397461
-0.82427979
-0.82458496
-0.82458496
-0.82458496
-0.82427979
-0.82427979
-0.82366943
-0.82305908
-0.82214355
-0.82122803
-0.81970215
-0.81817627
-0.81634521
-0.81481934
-0.81329346
-0.81176758
-0.81054688
-0.80963135
-0.809021
-0.80871582
-0.80841064
-0.80841064
-0.80841064
-0.80871582
-0.809021
-0.80963135
-0.81054688
-0.81176758
-0.81298828
-0.81420898
-0.81512451
-0.81604004
-0.81665039
-0.81695557
-0.81756592
-0.81787109
-0.81817627
-0.81817627
-0.81848145
-0.81817627
-0.81787109
-0.81756592
-0.81726074
-0.81726074
-0.81726074
-0.81695557
-0.81665039
-0.81634521
-0.81573486
-0.81542969
-0.81542969
-0.81512451
-0.81512451
-0.81512451
-0.81512451
-0.81512451
-0.81481934
-0.81451416
-0.81420898
-0.81390381
-0.81359863
-0.81329346
-0.81298828
-0.81268311
-0.81237793
-0.81207275
-0.81176758
-0.81115723
-0.81054688
-0.80993652
-0.809021
-0.80841064
-0.80810547
-0.80780029
-0.80749512
-0.80718994
-0.80688477
-0.80688477
-0.80657959
-0.80657959
-0.80688477
-0.80749512
-0.80810547
-0.80871582
-0.80963135
-0.8102417
-0.81085205
-0.8114624
-0.81176758
-0.81207275
-0.81268311
-0.81329346
-0.81390381
-0.81481934
-0.81542969
-0.81604004
-0.81665039
-0.81695557
-0.81695557
-0.81695557
-0.81695557
-0.81726074
-0.81726074
-0.81756592
-0.81817627
-0.8190918
-0.8203125
-0.82122803
-0.82244873
-0.82366943
-0.82489014
-0.82580566
-0.82672119
-0.82763672
-0.82855225
-0.8291626
-0.82977295
-0.8303833
-0.83099365
-0.83129883
-0.831604
-0.83190918
-0.83221436
-0.83251953
-0.83221436
-0.83221436
-0.83190918
-0.83190918
-0.83190918
-0.83190918
-0.83190918
-0.831604
-0.831604
-0.831604
-0.831604
-0.83190918
-0.83221436
-0.83251953
-0.83312988
-0.83374023
-0.83404541
-0.83435059
-0.83435059
-0.83465576
-0.83465576
-0.83465576
-0.83465576
-0.83435059
-0.83404541
-0.83404541
-0.83435059
-0.83435059
-0.83465576
-0.83465576
-0.83465576
-0.83465576
-0.83496094
-0.83526611
-0.83557129
-0.83618164
-0.83679199
-0.83740234
-0.8380127
-0.83862305
-0.8392334
-0.83984375
-0.8404541
-0.84075928
-0.84136963
-0.8416748
-0.84197998
-0.84228516
-0.84259033
-0.84259033
-0.84289551
-0.84289551
-0.84320068
-0.84350586
-0.84381104
-0.84411621
-0.84442139
-0.84442139
-0.84472656
-0.84503174
-0.84533691
-0.84594727
-0.84655762
-0.84716797
-0.84777832
-0.8480835
-0.84838867
-0.84869385
-0.8493042
-0.8493042
-0.8493042
-0.8493042
-0.84899902
-0.84838867
-0.8480835
-0.84777832
-0.84747314
-0.84716797
-0.84686279
-0.84686279
-0.84655762
-0.84655762
-0.84625244
-0.84625244
-0.84625244
-0.84625244
-0.84655762
-0.84716797
-0.8480835
-0.84899902
-0.84991455
-0.85083008
-0.85174561
-0.85235596
-0.85327148
-0.85388184
-0.85418701
-0.85418701
-0.85418701
-0.85388184
-0.85357666
-0.85327148
-0.85296631
-0.85235596
-0.85235596
-0.85205078
-0.85205078
-0.85174561
-0.85144043
-0.85144043
-0.85113525
-0.85083008
-0.8505249
-0.85021973
-0.85021973
-0.84991455
-0.8493042
-0.84869385
-0.84747314
-0.84594727
-0.84442139
-0.84289551
-0.84136963
-0.83953857
-0.83740234
-0.83465576
-0.831604
-0.82824707
-0.82458496
-0.82061768
-0.81665039
-0.81268311
-0.80871582
-0.80474854
-0.80078125
-0.79681396
-0.79284668
-0.78887939
-0.78552246
-0.78216553
-0.77941895
-0.77697754
-0.77514648
-0.77362061
-0.7723999
-0.77209473
-0.77209473
-0.77270508
-0.77362061
-0.77453613
-0.77545166
-0.77606201
-0.77667236
-0.77728271
-0.77728271
-0.77728271
-0.77697754
-0.77636719
-0.77575684
-0.77453613
-0.77301025
-0.7711792
-0.76904297
-0.76690674
-0.76477051
-0.76263428
-0.76049805
-0.75866699
-0.75683594
-0.75531006
-0.753479
-0.75195312
-0.75042725
-0.74920654
-0.74829102
-0.74768066
-0.74768066
-0.74798584
-0.74920654
-0.7510376
-0.75317383
-0.75592041
-0.75927734
-0.76293945
-0.76721191
-0.77209473
-0.77758789
-0.78399658
-0.79040527
-0.79742432
-0.80474854
-0.81176758
-0.81878662
-0.82580566
-0.83221436
-0.83892822
-0.84472656
-0.85021973
-0.85510254
-0.85906982
-0.86273193
-0.86547852
-0.86791992
-0.87005615
-0.87158203
-0.87310791
-0.87402344
-0.87524414
-0.87585449
-0.87646484
-0.87677002
-0.8770752
-0.87738037
-0.87738037
-0.87768555
-0.8782959
-0.87890625
-0.87982178
-0.88104248
-0.88256836
-0.88409424
-0.88592529
-0.88745117
-0.88928223
-0.89050293
-0.89202881
-0.89294434
-0.89385986
-0.89447021
-0.89477539
-0.89508057
-0.89477539
-0.89447021
-0.89385986
-0.89294434
-0.89172363
-0.89050293
-0.8895874
-0.8883667
-0.88745117
-0.88684082
-0.88653564
-0.88653564
-0.88684082
-0.88684082
-0.887146
-0.88745117
-0.88775635
-0.8883667
-0.88867188
-0.88928223
-0.88989258
-0.89019775
-0.89019775
-0.88989258
-0.8895874
-0.88897705
-0.88806152
-0.88745117
-0.88684082
-0.88653564
-0.88623047
-0.88623047
-0.88653564
-0.887146
-0.88775635
-0.88867188
-0.8895874
-0.89111328
-0.89233398
-0.89355469
-0.89447021
-0.89508057
-0.89569092
-0.89599609
-0.89660645
-0.8972168
-0.89782715
-0.89813232
-0.8984375
-0.8984375
-0.89874268
-0.89935303
-0.90026855
-0.90179443
-0.90393066
-0.90637207
-0.909729
-0.91400146
-0.91888428
-0.92407227
-0.93017578
-0.9362793
-0.94299316
-0.94940186
-0.95550537
-0.96099854
-0.96588135
-0.96984863
-0.97290039
-0.97473145
-0.9753418
-0.97442627
-0.97167969
-0.96679688
-0.95977783
-0.95062256
-0.93933105
-0.92529297
-0.90820312
-0.8883667
-0.86517334
-0.8380127
-0.80718994
-0.7723999
-0.7333374
-0.69030762
-0.64361572
-0.59295654
-0.53863525
-0.48126221
-0.42175293
-0.36102295
-0.29937744
-0.23864746
-0.17883301
-0.12207031
-0.068969727
-0.02166748
0.018615723
0.051879883
0.076904297
0.093994141
0.10284424
0.10314941
0.095214844
0.078735352
0.054321289
0.022888184
-0.015258789
-0.058898926
-0.10650635
-0.15716553
-0.20965576
-0.26306152
-0.31616211
-0.36865234
-0.41931152
-0.46813965
-0.51422119
-0.55725098
-0.597229
-0.63323975
-0.66589355
-0.69488525
-0.72021484
-0.7421875
-0.76080322
-0.77606201
-0.78826904
-0.79772949
-0.80474854
-0.80993652
-0.81329346
-0.81542969
-0.81665039
-0.81695557
-0.81634521
-0.81573486
-0.81451416
-0.81359863
-0.81237793
-0.81176758
-0.81115723
-0.81115723
-0.81115723
-0.81176758
-0.81237793
-0.81359863
-0.81512451
-0.81695557
-0.81878662
-0.82092285
-0.82275391
-0.82489014
-0.82641602
-0.82824707
-0.82977295
-0.831604
-0.83343506
-0.83526611
-0.83740234
-0.8392334
-0.84106445
-0.84289551
-0.84442139
-0.84594727
-0.84747314
-0.84899902
-0.85021973
-0.85113525
-0.85205078
-0.85266113
-0.85327148
-0.85296631
-0.85266113
-0.85174561
-0.85021973
-0.84869385
-0.84686279
-0.84472656
-0.84289551
-0.84075928
-0.83862305
-0.83618164
-0.83404541
-0.83190918
-0.83007812
-0.82855225
-0.82733154
-0.82611084
-0.82550049
-0.82519531
-0.82519531
-0.82550049
-0.82611084
-0.82733154
-0.82824707
-0.82946777
-0.8303833
-0.83129883
-0.83251953
-0.83343506
-0.83435059
-0.83496094
-0.83496094
-0.83496094
-0.83465576
-0.83435059
-0.83404541
-0.83312988
-0.83221436
-0.83099365
-0.83007812
-0.82885742
-0.82763672
-0.82641602
-0.82519531
-0.82427979
-0.82305908
-0.82183838
-0.82092285
-0.82000732
-0.8190918
-0.81848145
-0.81787109
-0.81726074
-0.81695557
-0.81634521
-0.81604004
-0.81542969
-0.81512451
-0.81451416
-0.81359863
-0.81237793
-0.81115723
-0.80963135
-0.80810547
-0.80627441
-0.80444336
-0.8026123
-0.80047607
-0.79864502
-0.79650879
-0.79467773
-0.79284668
-0.7913208
-0.78979492
-0.78857422
-0.78704834
-0.78613281
-0.78521729
-0.78430176
-0.78369141
-0.78308105
-0.78216553
-0.78094482
-0.77941895
-0.77758789
-0.77545166
-0.77331543
-0.77056885
-0.76812744
-0.76568604
-0.76293945
-0.76019287
-0.75714111
-0.75408936
-0.75134277
-0.74859619
-0.74584961
-0.7434082
-0.74127197
-0.73883057
-0.73669434
-0.73425293
-0.73181152
-0.72937012
-0.72692871
-0.72418213
-0.72174072
-0.71899414
-0.71624756
-0.7131958
-0.71044922
-0.70739746
-0.70465088
-0.70159912
-0.69854736
-0.69580078
-0.69274902
-0.69030762
-0.68786621
-0.6854248
-0.6829834
-0.68054199
-0.67840576
-0.67565918
-0.67321777
-0.67047119
-0.66772461
-0.66497803
-0.66223145
-0.65917969
-0.65612793
-0.652771
-0.64971924
-0.64666748
-0.64361572
-0.64056396
-0.63781738
-0.63537598
-0.63323975
-0.63140869
-0.62957764
-0.62805176
-0.62652588
-0.62530518
-0.62408447
-0.62316895
-0.62255859
-0.62194824
-0.62164307
-0.62133789
-0.62103271
-0.62103271
-0.62072754
-0.62072754
-0.62072754
-0.62042236
-0.62011719
-0.61981201
-0.61981201
-0.61981201
-0.62011719
-0.62103271
-0.62194824
-0.62347412
-0.625
-0.62713623
-0.62988281
-0.63293457
-0.63659668
-0.64086914
-0.64544678
-0.65063477
-0.65582275
-0.66162109
-0.66741943
-0.67321777
-0.67871094
-0.68450928
-0.69030762
-0.69610596
-0.7019043
-0.70770264
-0.71350098
-0.71929932
-0.72509766
-0.730896
-0.73669434
-0.74279785
-0.74859619
-0.75469971
-0.76080322
-0.76721191
-0.77331543
-0.77941895
-0.78552246
-0.79162598
-0.79742432
-0.80291748
-0.80810547
-0.81268311
-0.81695557
-0.82092285
-0.82427979
-0.82733154
-0.83007812
-0.83251953
-0.83435059
-0.83618164
-0.83770752
-0.83953857
-0.84136963
-0.84350586
-0.84594727
-0.84838867
-0.85113525
-0.85388184
-0.85662842
-0.85968018
-0.86273193
-0.86578369
-0.86914062
-0.87188721
-0.87463379
-0.8770752
-0.87890625
-0.88043213
-0.88134766
-0.88195801
-0.88226318
-0.88226318
-0.88195801
-0.88165283
-0.88104248
-0.8807373
-0.88043213
-0.88043213
-0.88043213
-0.8807373
-0.88134766
-0.88226318
-0.88348389
-0.88500977
-0.88653564
-0.8883667
-0.89019775
-0.89202881
-0.89385986
-0.89538574
-0.89660645
-0.89752197
-0.89813232
-0.89813232
-0.89782715
-0.8972168
-0.89599609
-0.89477539
-0.89324951
-0.89172363
-0.89050293
-0.88928223
-0.8883667
-0.88775635
-0.887146
-0.88684082
-0.88684082
-0.88653564
-0.88623047
-0.88623047
-0.88623047
-0.88623047
-0.88653564
-0.88684082
-0.887146
-0.88745117
-0.88775635
-0.88806152
-0.8883667
-0.8883667
-0.8883667
-0.88806152
-0.88775635
-0.88745117
-0.88684082
-0.88653564
-0.88623047
-0.88592529
-0.88592529
-0.88592529
-0.88592529
-0.88562012
-0.88562012
-0.88531494
-0.88500977
-0.88470459
-0.88409424
-0.88348389
-0.88256836
-0.88195801
-0.88165283
-0.88104248
-0.88043213
-0.88012695
-0.87982178
-0.8795166
-0.87921143
-0.87890625
-0.87860107
-0.8782959
-0.8782959
-0.8782959
-0.87860107
-0.87860107
-0.87890625
-0.87921143
-0.87921143
-0.87921143
-0.8795166
-0.8795166
-0.8795166
-0.87921143
-0.87890625
-0.87799072
-0.87738037
-0.87646484
-0.87554932
-0.87463379
-0.87371826
-0.87310791
-0.87280273
-0.87249756
-0.87280273
-0.87341309
-0.87402344
-0.87493896
-0.87585449
-0.87677002
-0.87768555
-0.87860107
-0.8795166
-0.88043213
-0.88104248
-0.88165283
-0.88165283
-0.88134766
-0.88104248
-0.8807373
-0.8807373
-0.88043213
-0.88043213
-0.88043213
-0.88043213
-0.88104248
-0.88134766
-0.88195801
-0.88287354
-0.88378906
-0.88470459
-0.88592529
-0.887146
-0.88806152
-0.88928223
-0.88989258
-0.89080811
-0.89111328
-0.89141846
-0.89111328
-0.89111328
-0.89080811
-0.89019775
-0.88989258
-0.88989258
-0.88989258
-0.89019775
-0.89050293
-0.89080811
-0.89141846
-0.89233398
-0.89294434
-0.89385986
-0.89477539
-0.89538574
-0.89599609
-0.89660645
-0.8972168
-0.89782715
-0.8984375
-0.89904785
-0.89935303
-0.8996582
-0.89996338
-0.90026855
-0.90087891
-0.90148926
-0.90179443
-0.90209961
-0.90270996
-0.90301514
-0.90332031
-0.90393066
-0.90454102
-0.90484619
-0.90545654
-0.90576172
-0.90606689
-0.90606689
-0.90637207
-0.90606689
-0.90606689
-0.90606689
-0.90606689
-0.90606689
-0.90576172
-0.90576172
-0.90545654
-0.90515137
-0.90484619
-0.90484619
-0.90454102
-0.90484619
-0.90484619
-0.90515137
-0.90515137
-0.90545654
-0.90545654
-0.90545654
-0.90545654
-0.90545654
-0.90545654
-0.90576172
-0.90637207
-0.90667725
-0.90698242
-0.9072876
-0.90759277
-0.90789795
-0.90820312
-0.90881348
-0.90942383
-0.909729
-0.91033936
-0.91033936
-0.91033936
-0.91033936
-0.91033936
-0.91003418
-0.91003418
-0.91003418
-0.91003418
-0.91003418
-0.91003418
-0.91003418
-0.909729
-0.909729
-0.909729
-0.909729
-0.909729
-0.91033936
-0.91064453
-0.91156006
-0.91217041
-0.91308594
-0.91400146
-0.91491699
-0.9161377
-0.91705322
-0.91827393
-0.91918945
-0.92010498
-0.92071533
-0.92102051
-0.92102051
-0.92102051
-0.92102051
-0.92041016
-0.9197998
-0.91888428
-0.91796875
-0.91705322
-0.91583252
-0.91461182
-0.91369629
-0.91247559
-0.91156006
-0.91094971
-0.91033936
-0.91003418
-0.91003418
-0.91033936
-0.91094971
-0.91156006
-0.91217041
-0.91278076
-0.91369629
-0.91491699
-0.91583252
-0.91674805
-0.91766357
-0.9185791
-0.91918945
-0.9197998
-0.92041016
-0.92102051
-0.92193604
-0.92285156
-0.92346191
-0.92407227
-0.92437744
-0.92468262
-0.92437744
-0.92437744
-0.92407227
-0.92376709
-0.92346191
-0.92315674
-0.92254639
-0.92163086
-0.92010498
-0.9185791
-0.91674805
-0.91461182
-0.91247559
-0.91003418
-0.90759277
-0.90515137
-0.90240479
-0.8996582
-0.89660645
-0.89355469
-0.89019775
-0.88684082
-0.88317871
-0.87982178
-0.87646484
-0.87341309
-0.87005615
-0.86639404
-0.86273193
-0.859375
-0.85601807
-0.85327148
-0.85083008
-0.84899902
-0.84777832
-0.84686279
-0.84655762
-0.84655762
-0.84686279
-0.84716797
-0.8480835
-0.84899902
-0.85021973
-0.85144043
-0.85266113
-0.85327148
-0.85327148
-0.85327148
-0.85296631
-0.85235596
-0.85144043
-0.85021973
-0.84838867
-0.84625244
-0.84350586
-0.84075928
-0.83740234
-0.83404541
-0.8303833
-0.82702637
-0.82366943
-0.82061768
-0.81787109
-0.81573486
-0.81359863
-0.81237793
-0.8114624
-0.81115723
-0.8114624
-0.81237793
-0.81420898
-0.81695557
-0.82000732
-0.82336426
-0.82733154
-0.83190918
-0.83709717
-0.84259033
-0.84838867
-0.85449219
-0.8605957
-0.86700439
-0.87280273
-0.87860107
-0.88378906
-0.88867188
-0.89324951
-0.89752197
-0.90118408
-0.90484619
-0.90789795
-0.91064453
-0.91339111
-0.91552734
-0.91766357
-0.9197998
-0.92193604
-0.92407227
-0.9262085
-0.92834473
-0.93048096
-0.93231201
-0.93414307
-0.93597412
-0.9375
-0.93933105
-0.94085693
-0.94268799
-0.94421387
-0.94543457
-0.94665527
-0.94787598
-0.9487915
-0.94940186
-0.95001221
-0.95062256
-0.95092773
-0.95123291
-0.95153809
-0.95184326
-0.95214844
-0.95214844
-0.95245361
-0.95245361
-0.95214844
-0.95184326
-0.95153809
-0.95123291
-0.95092773
-0.95062256
-0.95001221
-0.94970703
-0.9487915
-0.94848633
-0.94787598
-0.94787598
-0.94787598
-0.9475708
-0.9475708
-0.94726562
-0.94696045
-0.94665527
-0.9463501
-0.94604492
-0.94573975
-0.94512939
-0.94482422
-0.94451904
-0.94421387
-0.94360352
-0.94360352
-0.94329834
-0.94329834
-0.94329834
-0.94360352
-0.94390869
-0.94451904
-0.94512939
-0.94573975
-0.94696045
-0.94787598
-0.9487915
-0.94970703
-0.95031738
-0.95092773
-0.95123291
-0.95153809
-0.95184326
-0.95214844
-0.95214844
-0.95184326
-0.95153809
-0.95123291
-0.95123291
-0.95153809
-0.95214844
-0.95336914
-0.9552002
-0.9576416
-0.96069336
-0.96435547
-0.96893311
-0.97412109
-0.98022461
-0.9866333
-0.99334717
-1.000061
-1.0064697
-1.0125732
-1.0177612
-1.0223389
-1.0253906
-1.0269165
-1.0269165
-1.0250854
-1.0214233
-1.0153198
-1.0070801
-0.99609375
-0.98266602
-0.96618652
-0.94665527
-0.92437744
-0.89904785
-0.87005615
-0.83740234
-0.80108643
-0.7611084
-0.71716309
-0.66986084
-0.61859131
-0.5645752
-0.50750732
-0.44799805
-0.38726807
-0.32592773
-0.26489258
-0.2053833
-0.14831543
-0.095825195
-0.048828125
-0.0088500977
0.023498535
0.047607422
0.063171387
0.069580078
0.067138672
0.055847168
0.035705566
0.0073242188
-0.028686523
-0.071105957
-0.11871338
-0.17059326
-0.22491455
-0.28076172
-0.33630371
-0.39123535
-0.44403076
-0.49438477
-0.54199219
-0.5859375
-0.62652588
-0.66314697
-0.69580078
-0.72479248
-0.75012207
-0.77209473
-0.79101562
-0.80718994
-0.82122803
-0.83282471
-0.84259033
-0.8505249
-0.85632324
-0.86090088
-0.86425781
-0.86669922
-0.86853027
-0.86975098
-0.87036133
-0.87036133
-0.87005615
-0.86883545
-0.86761475
-0.86608887
-0.86486816
-0.86364746
-0.86273193
-0.86242676
-0.86242676
-0.86303711
-0.86395264
-0.86517334
-0.86639404
-0.86791992
-0.8694458
-0.87127686
-0.87310791
-0.87493896
-0.87677002
-0.8782959
-0.87982178
-0.88104248
-0.88226318
-0.88317871
-0.88378906
-0.88409424
-0.88439941
-0.88439941
-0.88439941
-0.88439941
-0.88439941
-0.88409424
-0.88409424
-0.88378906
-0.88348389
-0.88287354
-0.88226318
-0.88165283
-0.88104248
-0.88012695
-0.8795166
-0.87890625
-0.87799072
-0.8770752
-0.87615967
-0.87493896
-0.87341309
-0.87219238
-0.8706665
-0.8694458
-0.8682251
-0.86730957
-0.86639404
-0.86578369
-0.86486816
-0.86425781
-0.86364746
-0.86303711
-0.86212158
-0.86120605
-0.86029053
-0.859375
-0.85845947
-0.85784912
-0.85693359
-0.85632324
-0.85540771
-0.85449219
-0.85357666
-0.85266113
-0.85174561
-0.85083008
-0.84991455
-0.8493042
-0.84869385
-0.8480835
-0.84747314
-0.84716797
-0.84655762
-0.84625244
-0.84564209
-0.84503174
-0.84411621
-0.84350586
-0.84289551
-0.84228516
-0.8416748
-0.84106445
-0.84014893
-0.83953857
-0.83831787
-0.83740234
-0.83648682
-0.83587646
-0.83526611
-0.83496094
-0.83465576
-0.83435059
-0.83404541
-0.83374023
-0.83312988
-0.83251953
-0.83190918
-0.83099365
-0.8303833
-0.82946777
-0.82855225
-0.82733154
-0.82550049
-0.82366943
-0.8215332
-0.8190918
-0.81695557
-0.81451416
-0.81207275
-0.80963135
-0.80688477
-0.80413818
-0.80169678
-0.7989502
-0.79650879
-0.79437256
-0.79223633
-0.78979492
-0.78765869
-0.78521729
-0.78277588
-0.78063965
-0.77819824
-0.77606201
-0.77362061
-0.7711792
-0.76873779
-0.76629639
-0.7635498
-0.7611084
-0.75805664
-0.75531006
-0.7522583
-0.74951172
-0.74645996
-0.74371338
-0.7409668
-0.73822021
-0.73547363
-0.73272705
-0.72967529
-0.72662354
-0.7232666
-0.71990967
-0.71655273
-0.71289062
-0.70922852
-0.70556641
-0.70220947
-0.69885254
-0.69549561
-0.6918335
-0.68847656
-0.6854248
-0.68237305
-0.67962646
-0.67718506
-0.67504883
-0.67321777
-0.67108154
-0.66925049
-0.66772461
-0.66589355
-0.66436768
-0.6628418
-0.66131592
-0.66009521
-0.65856934
-0.65734863
-0.65582275
-0.65460205
-0.65307617
-0.65155029
-0.65002441
-0.64849854
-0.64697266
-0.64544678
-0.6439209
-0.64239502
-0.64086914
-0.63964844
-0.63873291
-0.63751221
-0.63659668
-0.63598633
-0.6350708
-0.63446045
-0.6338501
-0.63354492
-0.63354492
-0.63415527
-0.6350708
-0.6362915
-0.63812256
-0.64056396
-0.64331055
-0.64666748
-0.65032959
-0.65460205
-0.65917969
-0.66375732
-0.66894531
-0.67443848
-0.68023682
-0.68603516
-0.69213867
-0.69824219
-0.7043457
-0.71044922
-0.71624756
-0.72174072
-0.72723389
-0.73242188
-0.73791504
-0.74371338
-0.74981689
-0.75592041
-0.76202393
-0.76812744
-0.77423096
-0.77972412
-0.78521729
-0.79040527
-0.79559326
-0.80078125
-0.80566406
-0.81054688
-0.81481934
-0.81939697
-0.82336426
-0.82733154
-0.83099365
-0.83465576
-0.8380127
-0.84106445
-0.84381104
-0.84655762
-0.8493042
-0.85235596
-0.85510254
-0.8581543
-0.86090088
-0.86395264
-0.86669922
-0.86914062
-0.87158203
-0.87371826
-0.87524414
-0.87677002
-0.87799072
-0.87890625
-0.88012695
-0.88134766
-0.88226318
-0.88348389
-0.88439941
-0.88562012
-0.88684082
-0.88806152
-0.88928223
-0.89050293
-0.89202881
-0.89324951
-0.89477539
-0.89599609
-0.89691162
-0.89782715
-0.89874268
-0.89935303
-0.8996582
-0.89996338
-0.89996338
-0.8996582
-0.89935303
-0.8984375
-0.89782715
-0.89691162
-0.89630127
-0.89599609
-0.89599609
-0.89599609
-0.89599609
-0.89630127
-0.89660645
-0.89691162
-0.89691162
-0.89691162
-0.89691162
-0.89691162
-0.8972168
-0.8972168
-0.89752197
-0.89752197
-0.8972168
-0.89691162
-0.89599609
-0.89538574
-0.89447021
-0.89324951
-0.89202881
-0.89080811
-0.88989258
-0.88897705
-0.88806152
-0.88745117
-0.88653564
-0.88562012
-0.88500977
-0.88409424
-0.88348389
-0.88317871
-0.88287354
-0.88256836
-0.88287354
-0.88287354
-0.88317871
-0.88317871
-0.88348389
-0.88317871
-0.88317871
-0.88256836
-0.88226318
-0.88195801
-0.88134766
-0.88104248
-0.88043213
-0.88012695
-0.87982178
-0.8795166
-0.87921143
-0.87890625
-0.87890625
-0.87890625
-0.87890625
-0.87921143
-0.8795166
-0.87982178
-0.87982178
-0.88012695
-0.88043213
-0.88043213
-0.8807373
-0.8807373
-0.8807373
-0.88043213
-0.87982178
-0.87921143
-0.8782959
-0.87738037
-0.87615967
-0.87554932
-0.87493896
-0.87463379
-0.87463379
-0.87463379
-0.87493896
-0.87554932
-0.87615967
-0.87677002
-0.87768555
-0.87860107
-0.8795166
-0.88043213
-0.88104248
-0.88195801
-0.88287354
-0.88378906
-0.88470459
-0.88500977
-0.88531494
-0.88531494
-0.88531494
-0.88531494
-0.88531494
-0.88562012
-0.88562012
-0.88623047
-0.88684082
-0.887146
-0.88775635
-0.88775635
-0.88806152
-0.88775635
-0.88745117
-0.887146
-0.887146
-0.88684082
-0.88623047
-0.88592529
-0.88500977
-0.88439941
-0.88348389
-0.88287354
-0.88226318
-0.88195801
-0.88195801
-0.88195801
-0.88226318
-0.88287354
-0.88378906
-0.88500977
-0.88623047
-0.88745117
-0.88928223
-0.89111328
-0.89294434
-0.89477539
-0.89630127
-0.8972168
-0.89782715
-0.8984375
-0.8984375
-0.89874268
-0.89874268
-0.89904785
-0.89904785
-0.89935303
-0.89935303
-0.8996582
-0.8996582
-0.89996338
-0.90026855
-0.90057373
-0.90087891
-0.90148926
-0.90179443
-0.90240479
-0.90270996
-0.90301514
-0.90362549
-0.90393066
-0.90393066
-0.90393066
-0.90393066
-0.90362549
-0.90332031
-0.90270996
-0.90270996
-0.90270996
-0.90301514
-0.90362549
-0.90454102
-0.90545654
-0.90637207
-0.90759277
-0.90911865
-0.91064453
-0.91247559
-0.91430664
-0.9161377
-0.91796875
-0.91949463
-0.92102051
-0.92224121
-0.92285156
-0.92376709
-0.92437744
-0.92468262
-0.92498779
-0.92468262
-0.92407227
-0.92346191
-0.92254639
-0.92163086
-0.92010498
-0.91888428
-0.9173584
-0.91583252
-0.91430664
-0.91308594
-0.91217041
-0.91156006
-0.91094971
-0.91094971
-0.91094971
-0.91125488
-0.91186523
-0.91247559
-0.91339111
-0.91400146
-0.91491699
-0.91583252
-0.91674805
-0.91766357
-0.91827393
-0.91888428
-0.91949463
-0.9197998
-0.9197998
-0.9197998
-0.9197998
-0.91949463
-0.91918945
-0.9185791
-0.91796875
-0.9173584
-0.91644287
-0.91522217
-0.91430664
-0.91308594
-0.91156006
-0.909729
-0.90789795
-0.90576172
-0.90332031
-0.90026855
-0.89691162
-0.89294434
-0.8883667
-0.88378906
-0.87921143
-0.87432861
-0.87005615
-0.86578369
-0.86212158
-0.85845947
-0.85540771
-0.85235596
-0.84991455
-0.84777832
-0.84564209
-0.84442139
-0.84350586
-0.84289551
-0.84289551
-0.84350586
-0.84411621
-0.84503174
-0.84594727
-0.84686279
-0.84777832
-0.84838867
-0.84838867
-0.8480835
-0.84716797
-0.84625244
-0.84472656
-0.84320068
-0.84136963
-0.83953857
-0.83709717
-0.83465576
-0.83221436
-0.82946777
-0.82641602
-0.82336426
-0.82061768
-0.81787109
-0.81542969
-0.81298828
-0.81115723
-0.80963135
-0.80871582
-0.80810547
-0.80780029
-0.80810547
-0.809021
-0.81085205
-0.81268311
-0.81542969
-0.81848145
-0.82214355
-0.82641602
-0.83099365
-0.83618164
-0.84197998
-0.8480835
-0.85418701
-0.86029053
-0.86669922
-0.87310791
-0.87890625
-0.88470459
-0.89019775
-0.89508057
-0.8996582
-0.90362549
-0.90698242
-0.91003418
-0.91278076
-0.91491699
-0.91705322
-0.91888428
-0.92041016
-0.92163086
-0.92285156
-0.92376709
-0.92468262
-0.92559814
-0.92651367
-0.92773438
-0.9286499
-0.92987061
-0.93109131
-0.93231201
-0.93353271
-0.93505859
-0.93658447
-0.93780518
-0.93933105
-0.94116211
-0.94268799
-0.94390869
-0.94482422
-0.94573975
-0.9463501
-0.94665527
-0.94726562
-0.9475708
-0.94787598
-0.94818115
-0.94818115
-0.94818115
-0.94818115
-0.9475708
-0.94726562
-0.94665527
-0.94665527
-0.94665527
-0.94696045
-0.9475708
-0.94818115
-0.9487915
-0.94970703
-0.95031738
-0.95092773
-0.95153809
-0.95184326
-0.95184326
-0.95184326
-0.95184326
-0.95153809
-0.95092773
-0.95031738
-0.94940186
-0.94848633
-0.94696045
-0.94543457
-0.94390869
-0.94238281
-0.94085693
-0.93963623
-0.9387207
-0.93811035
-0.9375
-0.93719482
-0.93719482
-0.9375
-0.93811035
-0.9387207
-0.93933105
-0.94024658
-0.94085693
-0.94177246
-0.94268799
-0.94360352
-0.94421387
-0.94512939
-0.94573975
-0.9463501
-0.94665527
-0.94696045
-0.9475708
-0.9487915
-0.95001221
-0.95184326
-0.95428467
-0.95733643
-0.96099854
-0.965271
-0.97015381
-0.97564697
-0.98205566
-0.98876953
-0.99578857
-1.0028076
-1.0095215
-1.015625
-1.0205078
-1.0238647
-1.026001
-1.0263062
-1.0247803
-1.0214233
-1.0159302
-1.0083008
-0.99822998
-0.9854126
-0.96923828
-0.95001221
-0.92681885
-0.90026855
-0.87005615
-0.83587646
-0.79803467
-0.75653076
-0.71136475
-0.66253662
-0.61004639
-0.55450439
-0.496521
-0.43670654
-0.37567139
-0.31433105
-0.25360107
-0.19500732
-0.13946533
-0.088806152
-0.044250488
-0.0067138672
0.022888184
0.044250488
0.056762695
0.06072998
0.055847168
0.042419434
0.020446777
-0.0088500977
-0.045471191
-0.088195801
-0.13580322
-0.18676758
-0.24017334
-0.29449463
-0.34881592
-0.40222168
-0.45410156
-0.50323486
-0.54962158
-0.59265137
-0.63171387
-0.66741943
-0.69885254
-0.72692871
-0.75164795
-0.77270508
-0.79101562
-0.80657959
-0.81939697
-0.8303833
-0.8392334
-0.84655762
-0.85266113
-0.85723877
-0.86120605
-0.86425781
-0.86669922
-0.86853027
-0.87005615
-0.87097168
-0.87188721
-0.87249756
-0.87310791
-0.87341309
-0.87341309
-0.87371826
-0.87371826
-0.87402344
-0.87432861
-0.87463379
-0.87524414
-0.87554932
-0.87585449
-0.87615967
-0.87677002
-0.87738037
-0.87799072
-0.87890625
-0.87982178
-0.8807373
-0.88165283
-0.88256836
-0.88348389
-0.88439941
-0.88531494
-0.88592529
-0.88653564
-0.887146
-0.88745117
-0.88775635
-0.88775635
-0.88775635
-0.88775635
-0.887146
-0.88653564
-0.88562012
-0.88470459
-0.88378906
-0.88287354
-0.88195801
-0.88104248
-0.87982178
-0.87890625
-0.87799072
-0.87738037
-0.87646484
-0.87554932
-0.87463379
-0.87371826
-0.87249756
-0.87158203
-0.8706665
-0.86975098
-0.86883545
-0.86761475
-0.86608887
-0.86486816
-0.86364746
-0.86273193
-0.86181641
-0.86090088
-0.86029053
-0.85998535
-0.85968018
-0.85998535
-0.86029053
-0.8605957
-0.86120605
-0.86212158
-0.86303711
-0.86364746
-0.86425781
-0.86456299
-0.86486816
-0.86486816
-0.86425781
-0.86334229
-0.86212158
-0.8605957
-0.85845947
-0.85632324
-0.85388184
-0.85144043
-0.84899902
-0.84686279
-0.84503174
-0.84350586
-0.84228516
-0.84106445
-0.83984375
-0.8392334
-0.83862305
-0.83831787
-0.8380127
-0.83770752
-0.83740234
-0.83679199
-0.83587646
-0.83496094
-0.83374023
-0.83221436
-0.83099365
-0.82946777
-0.82824707
-0.82672119
-0.82550049
-0.82427979
-0.82305908
-0.82183838
-0.8203125
-0.81878662
-0.81726074
-0.81542969
-0.81359863
-0.81176758
-0.80963135
-0.80718994
-0.80474854
-0.80230713
-0.79956055
-0.79650879
-0.79345703
-0.79040527
-0.78735352
-0.78399658
-0.78125
-0.77819824
-0.77545166
-0.7723999
-0.7699585
-0.76782227
-0.76568604
-0.7635498
-0.76141357
-0.75958252
-0.75744629
-0.75531006
-0.75286865
-0.75042725
-0.74798584
-0.74554443
-0.74279785
-0.74066162
-0.73822021
-0.73577881
-0.73303223
-0.73028564
-0.72723389
-0.7244873
-0.72174072
-0.71868896
-0.71563721
-0.71258545
-0.70922852
-0.70556641
-0.7019043
-0.69824219
-0.69458008
-0.69091797
-0.68756104
-0.6842041
-0.68115234
-0.67810059
-0.675354
-0.67230225
-0.66955566
-0.66711426
-0.66467285
-0.66223145
-0.66009521
-0.65795898
-0.65612793
-0.65460205
-0.652771
-0.65124512
-0.64941406
-0.64758301
-0.64605713
-0.64422607
-0.64300537
-0.64147949
-0.64056396
-0.63934326
-0.63842773
-0.63781738
-0.63751221
-0.63720703
-0.63720703
-0.63720703
-0.63751221
-0.63842773
-0.63934326
-0.64086914
-0.64239502
-0.64422607
-0.64605713
-0.64788818
-0.64971924
-0.65216064
-0.65460205
-0.65734863
-0.66040039
-0.66345215
-0.66680908
-0.67047119
-0.6741333
-0.67810059
-0.68237305
-0.68725586
-0.69213867
-0.69732666
-0.70281982
-0.70892334
-0.71472168
-0.72113037
-0.72784424
-0.73455811
-0.74157715
-0.74829102
-0.75500488
-0.76171875
-0.76812744
-0.77484131
-0.78125
-0.78735352
-0.79345703
-0.79956055
-0.80505371
-0.8102417
-0.81512451
-0.81970215
-0.82427979
-0.82855225
-0.83251953
-0.83648682
-0.84014893
-0.84381104
-0.84716797
-0.85083008
-0.85388184
-0.85693359
-0.85968018
-0.86242676
-0.86456299
-0.86669922
-0.86883545
-0.8706665
-0.87280273
-0.87463379
-0.87615967
-0.87799072
-0.8795166
-0.8807373
-0.88226318
-0.88378906
-0.88500977
-0.88653564
-0.88806152
-0.8895874
-0.89111328
-0.89263916
-0.89447021
-0.89630127
-0.89813232
-0.8996582
-0.90118408
-0.90240479
-0.90393066
-0.90484619
-0.90576172
-0.90637207
-0.90637207
-0.90667725
-0.90667725
-0.90637207
-0.90606689
-0.90545654
-0.90484619
-0.90423584
-0.90332031
-0.90270996
-0.90209961
-0.90179443
-0.90179443
-0.90209961
-0.90240479
-0.90301514
-0.90393066
-0.90484619
-0.90576172
-0.90667725
-0.9072876
-0.90789795
-0.90881348
-0.90942383
-0.90942383
-0.90942383
-0.90911865
-0.90820312
-0.90667725
-0.90515137
-0.90362549
-0.90179443
-0.90026855
-0.8984375
-0.89691162
-0.89538574
-0.89385986
-0.89233398
-0.89141846
-0.89050293
-0.8895874
-0.88928223
-0.88928223
-0.8895874
-0.88989258
-0.89050293
-0.89080811
-0.89141846
-0.89172363
-0.89172363
-0.89202881
-0.89233398
-0.89263916
-0.89294434
-0.89324951
-0.89385986
-0.89447021
-0.89477539
-0.89508057
-0.89538574
-0.89569092
-0.89569092
-0.89569092
-0.89569092
-0.89538574
-0.89508057
-0.89447021
-0.89385986
-0.89324951
-0.89233398
-0.89141846
-0.89080811
-0.88989258
-0.88897705
-0.88806152
-0.887146
-0.88592529
-0.88531494
-0.88470459
-0.88470459
-0.88531494
-0.88592529
-0.88653564
-0.88684082
-0.88745117
-0.88775635
-0.88775635
-0.88806152
-0.88806152
-0.88806152
-0.88806152
-0.88775635
-0.88775635
-0.88745117
-0.887146
-0.88684082
-0.88623047
-0.88531494
-0.88470459
-0.88409424
-0.88378906
-0.88378906
-0.88409424
-0.88439941
-0.88531494
-0.88592529
-0.88684082
-0.88745117
-0.8883667
-0.88897705
-0.8895874
-0.89019775
-0.89080811
-0.89141846
-0.89172363
-0.89202881
-0.89202881
-0.89202881
-0.89202881
-0.89172363
-0.89172363
-0.89202881
-0.89202881
-0.89233398
-0.89233398
-0.89233398
-0.89263916
-0.89294434
-0.89324951
-0.89385986
-0.89447021
-0.89508057
-0.89569092
-0.89630127
-0.89630127
-0.89599609
-0.89569092
-0.89508057
-0.89447021
-0.89385986
-0.89294434
-0.89202881
-0.89111328
-0.89019775
-0.88928223
-0.8883667
-0.88806152
-0.88775635
-0.88775635
-0.88775635
-0.8883667
-0.88867188
-0.88928223
-0.88989258
-0.89080811
-0.89172363
-0.89263916
-0.89355469
-0.89447021
-0.89538574
-0.89599609
-0.89660645
-0.8972168
-0.89782715
-0.89813232
-0.8984375
-0.8984375
-0.8984375
-0.89813232
-0.89813232
-0.89813232
-0.89813232
-0.89874268
-0.89935303
-0.90026855
-0.90118408
-0.90209961
-0.90301514
-0.90393066
-0.90484619
-0.90545654
-0.90637207
-0.90698242
-0.90759277
-0.90820312
-0.9085083
-0.90881348
-0.9085083
-0.90820312
-0.90789795
-0.90759277
-0.90698242
-0.90637207
-0.90576172
-0.90545654
-0.90515137
-0.90484619
-0.90454102
-0.90454102
-0.90423584
-0.90423584
-0.90393066
-0.90393066
-0.90393066
-0.90393066
-0.90393066
-0.90332031
-0.90301514
-0.90209961
-0.90148926
-0.90057373
-0.8996582
-0.89874268
-0.89782715
-0.89691162
-0.89630127
-0.89569092
-0.89508057
-0.89477539
-0.89447021
-0.89416504
-0.89416504
-0.89416504
-0.89447021
-0.89477539
-0.89508057
-0.89569092
-0.89630127
-0.89691162
-0.89752197
-0.89782715
-0.8984375
-0.89874268
-0.89904785
-0.8996582
-0.90026855
-0.90087891
-0.90148926
-0.90179443
-0.90240479
-0.90240479
-0.90240479
-0.90240479
-0.90240479
-0.90240479
-0.90179443
-0.90148926
-0.90057373
-0.89996338
-0.89935303
-0.89904785
-0.89874268
-0.8984375
-0.89782715
-0.89752197
-0.89691162
-0.89691162
-0.89691162
-0.8972168
-0.89752197
-0.89813232
-0.89874268
-0.89904785
-0.8996582
-0.90026855
-0.90087891
-0.90118408
-0.90179443
-0.90209961
-0.90240479
-0.90301514
-0.90301514
-0.90332031
-0.90301514
-0.90301514
-0.90240479
-0.90179443
-0.90087891
-0.89996338
-0.89904785
-0.89782715
-0.89691162
-0.89569092
-0.89447021
-0.89355469
-0.89263916
-0.89202881
-0.89111328
-0.89019775
-0.88928223
-0.8883667
-0.887146
-0.88623047
-0.88531494
-0.88439941
-0.88348389
-0.88226318
-0.8807373
-0.87860107
-0.87615967
-0.87341309
-0.87005615
-0.86639404
-0.86242676
-0.8581543
-0.85357666
-0.84899902
-0.84472656
-0.84014893
-0.83587646
-0.83190918
-0.82794189
-0.82427979
-0.82122803
-0.81878662
-0.81695557
-0.81573486
-0.81573486
-0.81604004
-0.81726074
-0.81848145
-0.8203125
-0.82183838
-0.82366943
-0.82489014
-0.82611084
-0.82733154
-0.82794189
-0.82824707
-0.82794189
-0.82733154
-0.82580566
-0.82427979
-0.82244873
-0.8203125
-0.81817627
-0.81604004
-0.81359863
-0.81115723
-0.80841064
-0.80596924
-0.80383301
-0.80200195
-0.80108643
-0.8001709
-0.8001709
-0.8001709
-0.80047607
-0.80108643
-0.80200195
-0.80291748
-0.80413818
-0.80596924
-0.80810547
-0.81115723
-0.81451416
-0.81848145
-0.82275391
-0.82733154
-0.83251953
-0.8380127
-0.84350586
-0.8493042
-0.85540771
-0.86090088
-0.86669922
-0.87188721
-0.87677002
-0.88134766
-0.88531494
-0.88897705
-0.89233398
-0.89477539
-0.89691162
-0.8984375
-0.8996582
-0.90026855
-0.90118408
-0.90209961
-0.90301514
-0.90393066
-0.90484619
-0.90576172
-0.90667725
-0.90789795
-0.90942383
-0.91094971
-0.91278076
-0.91491699
-0.91705322
-0.91918945
-0.92132568
-0.92315674
-0.92498779
-0.92651367
-0.92803955
-0.92895508
-0.93017578
-0.93078613
-0.93170166
-0.93231201
-0.93292236
-0.93322754
-0.93322754
-0.93292236
-0.93261719
-0.93200684
-0.93109131
-0.93017578
-0.92895508
-0.92773438
-0.92651367
-0.92529297
-0.92376709
-0.92254639
-0.92071533
-0.91918945
-0.91796875
-0.91674805
-0.91552734
-0.91461182
-0.91369629
-0.91278076
-0.91217041
-0.91156006
-0.91156006
-0.91186523
-0.91247559
-0.91339111
-0.91430664
-0.91522217
-0.91583252
-0.91644287
-0.91705322
-0.91766357
-0.91827393
-0.91918945
-0.9197998
-0.92041016
-0.92071533
-0.92102051
-0.92071533
-0.92041016
-0.9197998
-0.91918945
-0.91827393
-0.91705322
-0.9161377
-0.91522217
-0.91400146
-0.91308594
-0.91186523
-0.91094971
-0.91033936
-0.91003418
-0.91033936
-0.91156006
-0.91339111
-0.9161377
-0.9197998
-0.92407227
-0.92895508
-0.93475342
-0.94146729
-0.94848633
-0.95611572
-0.96405029
-0.97137451
-0.97839355
-0.98449707
-0.98999023
-0.99395752
-0.99639893
-0.99700928
-0.9954834
-0.99182129
-0.9854126
-0.97686768
-0.96557617
-0.95123291
-0.93414307
-0.91400146
-0.89050293
-0.86364746
-0.83312988
-0.79864502
-0.76049805
-0.71838379
-0.67260742
-0.62316895
-0.57067871
-0.51483154
-0.45654297
-0.39642334
-0.33569336
-0.2746582
-0.2142334
-0.15594482
-0.10040283
-0.049743652
-0.0042724609
0.033874512
0.06439209
0.086975098
0.10101318
0.10650635
0.10345459
0.091552734
0.071411133
0.043334961
0.0079345703
-0.033874512
-0.080871582
-0.13153076
-0.18493652
-0.23925781
-0.29418945
-0.34820557
-0.4006958
-0.45135498
-0.49957275
-0.54504395
-0.58685303
-0.62469482
-0.65887451
-0.68878174
-0.71502686
-0.73760986
-0.75714111
-0.77331543
-0.78674316
-0.79742432
-0.80596924
-0.81237793
-0.81726074
-0.82061768
-0.82244873
-0.82336426
-0.82366943
-0.82336426
-0.82275391
-0.82214355
-0.8215332
-0.82092285
-0.82061768
-0.82061768
-0.82092285
-0.8215332
-0.82244873
-0.82366943
-0.82489014
-0.82672119
-0.82824707
-0.83007812
-0.83190918
-0.83343506
-0.83526611
-0.83648682
-0.83770752
-0.83862305
-0.83953857
-0.84014893
-0.8404541
-0.84075928
-0.84075928
-0.84075928
-0.84075928
-0.8404541
-0.84014893
-0.83984375
-0.83953857
-0.83953857
-0.83953857
-0.8392334
-0.83953857
-0.83953857
-0.83953857
-0.83984375
-0.83984375
-0.83984375
-0.83984375
-0.83953857
-0.8392334
-0.8392334
-0.83892822
-0.83862305
-0.8380127
-0.83740234
-0.83679199
-0.83587646
-0.83496094
-0.83374023
-0.83251953
-0.83129883
-0.83007812
-0.82885742
-0.82794189
-0.82733154
-0.82641602
-0.82580566
-0.82550049
-0.82519531
-0.82489014
-0.82458496
-0.82427979
-0.82397461
-0.82366943
-0.82336426
-0.82305908
-0.82275391
-0.82214355
-0.82183838
-0.82122803
-0.8203125
-0.8190918
-0.81787109
-0.81665039
-0.81512451
-0.81390381
-0.81268311
-0.81176758
-0.81085205
-0.80993652
-0.809021
-0.80841064
-0.80749512
-0.80688477
-0.80657959
-0.80627441
-0.80596924
-0.80596924
-0.80596924
-0.80596924
-0.80627441
-0.80627441
-0.80596924
-0.80566406
-0.80505371
-0.80444336
-0.80383301
-0.80291748
-0.80200195
-0.80078125
-0.79925537
-0.79711914
-0.79498291
-0.79284668
-0.79040527
-0.78826904
-0.78582764
-0.78338623
-0.78125
-0.77880859
-0.77636719
-0.77362061
-0.7711792
-0.76873779
-0.76660156
-0.76446533
-0.76263428
-0.7611084
-0.75958252
-0.75805664
-0.75653076
-0.75500488
-0.753479
-0.75164795
-0.74981689
-0.74798584
-0.74584961
-0.74401855
-0.7421875
-0.74005127
-0.73791504
-0.73547363
-0.73272705
-0.72967529
-0.72662354
-0.7232666
-0.71990967
-0.71655273
-0.7131958
-0.70953369
-0.70556641
-0.7019043
-0.69793701
-0.69396973
-0.69000244
-0.68634033
-0.68267822
-0.67932129
-0.67596436
-0.6729126
-0.66955566
-0.66650391
-0.66375732
-0.66101074
-0.65856934
-0.65612793
-0.6539917
-0.65185547
-0.64971924
-0.64758301
-0.64575195
-0.64361572
-0.64147949
-0.63964844
-0.63751221
-0.63537598
-0.63323975
-0.63079834
-0.62835693
-0.62561035
-0.62316895
-0.62042236
-0.61767578
-0.61523438
-0.61248779
-0.61004639
-0.6072998
-0.60516357
-0.60272217
-0.60028076
-0.59814453
-0.5960083
-0.59387207
-0.59234619
-0.59112549
-0.59051514
-0.58990479
-0.58959961
-0.58959961
-0.59020996
-0.59082031
-0.59173584
-0.59265137
-0.59417725
-0.59570312
-0.59753418
-0.59936523
-0.60180664
-0.60424805
-0.60699463
-0.60974121
-0.61279297
-0.6161499
-0.61950684
-0.62316895
-0.62683105
-0.63049316
-0.63446045
-0.63873291
-0.64331055
-0.64819336
-0.65338135
-0.65887451
-0.66467285
-0.67047119
-0.67626953
-0.68267822
-0.68908691
-0.69580078
-0.70251465
-0.70953369
-0.71624756
-0.7232666
-0.72998047
-0.73669434
-0.7434082
-0.74981689
-0.75622559
-0.76202393
-0.76782227
-0.77301025
-0.77819824
-0.78308105
-0.78735352
-0.79162598
-0.79528809
-0.79864502
-0.80169678
-0.80444336
-0.80718994
-0.80963135
-0.81207275
-0.81481934
-0.81756592
-0.8203125
-0.82336426
-0.82611084
-0.82885742
-0.831604
-0.83404541
-0.83618164
-0.83831787
-0.84014893
-0.84197998
-0.84350586
-0.84503174
-0.84625244
-0.84716797
-0.84777832
-0.8480835
-0.84838867
-0.84869385
-0.8493042
-0.84991455
-0.85083008
-0.85235596
-0.85357666
-0.85510254
-0.85662842
-0.8581543
-0.85998535
-0.86151123
-0.86303711
-0.86456299
-0.86578369
-0.86669922
-0.86761475
-0.8682251
-0.8682251
-0.86791992
-0.86730957
-0.86608887
-0.86486816
-0.86364746
-0.86212158
-0.8605957
-0.85876465
-0.85723877
-0.85540771
-0.85388184
-0.85266113
-0.85205078
-0.85144043
-0.85144043
-0.85144043
-0.85144043
-0.85174561
-0.85235596
-0.85296631
-0.85388184
-0.85479736
-0.85601807
-0.85723877
-0.85845947
-0.85906982
-0.85968018
-0.85968018
-0.859375
-0.85876465
-0.85784912
-0.85693359
-0.85571289
-0.85449219
-0.85296631
-0.85113525
-0.8493042
-0.84716797
-0.84533691
-0.84350586
-0.8416748
-0.8404541
-0.8392334
-0.8380127
-0.83740234
-0.83679199
-0.83679199
-0.83709717
-0.83709717
-0.83740234
-0.83770752
-0.83831787
-0.83862305
-0.8392334
-0.83953857
-0.84014893
-0.84014893
-0.8404541
-0.84014893
-0.84014893
-0.83953857
-0.8392334
-0.83862305
-0.83831787
-0.83770752
-0.83709717
-0.83648682
-0.83587646
-0.83526611
-0.83404541
-0.83282471
-0.831604
-0.83068848
-0.82977295
-0.82946777
-0.82885742
-0.82824707
-0.82733154
-0.82641602
-0.82550049
-0.82458496
-0.82366943
-0.82305908
-0.82244873
-0.82183838
-0.8215332
-0.82092285
-0.82061768
-0.82000732
-0.82000732
-0.82000732
-0.82000732
-0.82000732
-0.8203125
-0.8203125
-0.8203125
-0.8203125
-0.82061768
-0.82092285
-0.82092285
-0.8215332
-0.82183838
-0.82244873
-0.82275391
-0.82275391
-0.82305908
-0.82366943
-0.82427979
-0.82489014
-0.82550049
-0.82641602
-0.82733154
-0.82824707
-0.8291626
-0.8303833
-0.831604
-0.83282471
-0.83374023
-0.83435059
-0.83465576
-0.83465576
-0.83465576
-0.83435059
-0.83404541
-0.83404541
-0.83404541
-0.83404541
-0.83404541
-0.83435059
-0.83435059
-0.83435059
-0.83465576
-0.83496094
-0.83526611
-0.83618164
-0.83709717
-0.83831787
-0.83984375
-0.84136963
-0.84289551
-0.84442139
-0.84594727
-0.84716797
-0.84838867
-0.84960938
-0.8505249
-0.85144043
-0.85174561
-0.85235596
-0.85296631
-0.85327148
-0.85388184
-0.85388184
-0.85418701
-0.85449219
-0.85479736
-0.85540771
-0.85632324
-0.85723877
-0.8581543
-0.85906982
-0.86029053
-0.86120605
-0.86212158
-0.86334229
-0.86425781
-0.86517334
-0.86608887
-0.86730957
-0.86853027
-0.86975098
-0.87097168
-0.87188721
-0.87249756
-0.87310791
-0.87371826
-0.87402344
-0.87463379
-0.87524414
-0.87554932
-0.87615967
-0.87646484
-0.87646484
-0.87677002
-0.8770752
-0.8770752
-0.87677002
-0.87646484
-0.87615967
-0.87554932
-0.87524414
-0.87463379
-0.87402344
-0.87371826
-0.87341309
-0.87341309
-0.87341309
-0.87371826
-0.87371826
-0.87402344
-0.87402344
-0.87432861
-0.87463379
-0.87493896
-0.87524414
-0.87585449
-0.87585449
-0.87615967
-0.87615967
-0.87585449
-0.87585449
-0.87585449
-0.87554932
-0.87554932
-0.87524414
-0.87493896
-0.87463379
-0.87432861
-0.87402344
-0.87402344
-0.87371826
-0.87371826
-0.87371826
-0.87341309
-0.87341309
-0.87280273
-0.87219238
-0.87158203
-0.87097168
-0.87005615
-0.86914062
-0.8682251
-0.86730957
-0.86639404
-0.86547852
-0.86486816
-0.86425781
-0.86395264
-0.86334229
-0.86303711
-0.86242676
-0.86242676
-0.86212158
-0.86242676
-0.86242676
-0.86273193
-0.86303711
-0.86273193
-0.86242676
-0.86212158
-0.86181641
-0.86151123
-0.86151123
-0.86120605
-0.86090088
-0.8605957
-0.86029053
-0.85968018
-0.85876465
-0.85754395
-0.85662842
-0.85571289
-0.85479736
-0.85418701
-0.85296631
-0.85205078
-0.8505249
-0.84899902
-0.84716797
-0.84472656
-0.84197998
-0.8392334
-0.83618164
-0.83282471
-0.82946777
-0.82611084
-0.82244873
-0.81878662
-0.81512451
-0.81115723
-0.80718994
-0.80352783
-0.79986572
-0.79620361
-0.79284668
-0.7901001
-0.78735352
-0.78552246
-0.78369141
-0.78277588
-0.78186035
-0.78155518
-0.78125
-0.78155518
-0.78186035
-0.78216553
-0.7824707
-0.7824707
-0.78277588
-0.78277588
-0.78277588
-0.7824707
-0.78186035
-0.78094482
-0.77972412
-0.77789307
-0.77606201
-0.77392578
-0.77178955
-0.76934814
-0.76690674
-0.76446533
-0.76202393
-0.75958252
-0.75744629
-0.75561523
-0.75378418
-0.75195312
-0.75073242
-0.74981689
-0.74920654
-0.74890137
-0.74890137
-0.74951172
-0.75042725
-0.75164795
-0.753479
-0.75561523
-0.75805664
-0.76080322
-0.76385498
-0.76782227
-0.77209473
-0.77697754
-0.7824707
-0.78826904
-0.79406738
-0.79986572
-0.80566406
-0.81115723
-0.81665039
-0.8215332
-0.82641602
-0.83129883
-0.83587646
-0.83984375
-0.84350586
-0.84686279
-0.84960938
-0.85205078
-0.85449219
-0.85662842
-0.85845947
-0.85968018
-0.86090088
-0.86151123
-0.86212158
-0.86273193
-0.86303711
-0.86303711
-0.86334229
-0.86364746
-0.86364746
-0.86395264
-0.86395264
-0.86395264
-0.86334229
-0.86303711
-0.86242676
-0.86212158
-0.86181641
-0.86151123
-0.86120605
-0.86120605
-0.86120605
-0.86151123
-0.86181641
-0.86212158
-0.86242676
-0.86273193
-0.86303711
-0.86334229
-0.86364746
-0.86364746
-0.86364746
-0.86364746
-0.86334229
-0.86273193
-0.86212158
-0.86151123
-0.86090088
-0.85998535
-0.85906982
-0.8581543
-0.85723877
-0.85632324
-0.85510254
-0.85418701
-0.85327148
-0.85266113
-0.85174561
-0.85113525
-0.8505249
-0.85021973
-0.84991455
-0.84991455
-0.84991455
-0.85021973
-0.8505249
-0.85083008
-0.85113525
-0.85174561
-0.85205078
-0.85266113
-0.85327148
-0.85388184
-0.85449219
-0.85479736
-0.85540771
-0.85571289
-0.85601807
-0.85632324
-0.85632324
-0.85632324
-0.85601807
-0.85601807
-0.85601807
-0.85662842
-0.85723877
-0.8581543
-0.85968018
-0.86212158
-0.86486816
-0.86853027
-0.87280273
-0.87799072
-0.88409424
-0.89080811
-0.89782715
-0.90545654
-0.91278076
-0.92041016
-0.92773438
-0.93444824
-0.94024658
-0.94512939
-0.94848633
-0.95031738
-0.95031738
-0.94848633
-0.94451904
-0.9387207
-0.93017578
-0.91918945
-0.90545654
-0.88897705
-0.86975098
-0.84686279
-0.82061768
-0.79040527
-0.75622559
-0.71838379
-0.67626953
-0.63079834
-0.58166504
-0.52886963
-0.47332764
-0.41534424
-0.35552979
-0.2947998
-0.234375
-0.17486572
-0.11779785
-0.064086914
-0.015563965
0.026550293
0.061950684
0.089111328
0.1083374
0.11901855
0.12115479
0.11505127
0.10040283
0.078125
0.047912598
0.011291504
-0.03112793
-0.078125
-0.128479
-0.18096924
-0.234375
-0.28778076
-0.33996582
-0.390625
-0.43914795
-0.48522949
-0.5279541
-0.56732178
-0.60302734
-0.6350708
-0.66345215
-0.68878174
-0.71044922
-0.72937012
-0.74523926
-0.75836182
-0.76934814
-0.77850342
-0.78582764
-0.7913208
-0.79559326
-0.79864502
-0.80078125
-0.80200195
-0.80230713
-0.80200195
-0.8013916
-0.80047607
-0.79956055
-0.79833984
-0.79681396
-0.79559326
-0.79467773
-0.79376221
-0.79345703
-0.79315186
-0.79315186
-0.79345703
-0.79376221
-0.79467773
-0.79559326
-0.79650879
-0.79803467
-0.79925537
-0.80108643
-0.8026123
-0.80444336
-0.80596924
-0.80780029
-0.80932617
-0.81085205
-0.81207275
-0.81268311
-0.81329346
-0.81359863
-0.81390381
-0.81390381
-0.81359863
-0.81329346
-0.81268311
-0.81207275
-0.81115723
-0.8102417
-0.809021
-0.80780029
-0.80627441
-0.80474854
-0.80322266
-0.80169678
-0.8001709
-0.79864502
-0.79711914
-0.79559326
-0.79406738
-0.7925415
-0.7913208
-0.78979492
-0.78887939
-0.78765869
-0.78643799
-0.78521729
-0.78399658
-0.78277588
-0.78125
-0.7800293
-0.77850342
-0.77728271
-0.77606201
-0.77484131
-0.77392578
-0.77301025
-0.77178955
-0.77087402
-0.7699585
-0.76904297
-0.76843262
-0.76782227
-0.76751709
-0.76721191
-0.76690674
-0.76629639
-0.76538086
-0.76416016
-0.76324463
-0.76202393
-0.7611084
-0.7598877
-0.75866699
-0.75744629
-0.75592041
-0.75439453
-0.75286865
-0.75134277
-0.74981689
-0.74829102
-0.74737549
-0.74645996
-0.74554443
-0.74493408
-0.74432373
-0.74371338
-0.74310303
-0.74249268
-0.74157715
-0.74035645
-0.73944092
-0.73822021
-0.73669434
-0.73547363
-0.73394775
-0.73272705
-0.730896
-0.72937012
-0.72753906
-0.72540283
-0.72357178
-0.72143555
-0.71929932
-0.71716309
-0.71502686
-0.71258545
-0.71075439
-0.70892334
-0.70709229
-0.70495605
-0.703125
-0.70129395
-0.69915771
-0.69671631
-0.6942749
-0.69152832
-0.68939209
-0.68695068
-0.68450928
-0.68206787
-0.67962646
-0.67687988
-0.6741333
-0.67138672
-0.66833496
-0.66497803
-0.66131592
-0.65765381
-0.65338135
-0.64910889
-0.6451416
-0.64086914
-0.63659668
-0.63262939
-0.62896729
-0.62530518
-0.62164307
-0.61828613
-0.6149292
-0.61187744
-0.60943604
-0.6072998
-0.60516357
-0.60302734
-0.60089111
-0.59875488
-0.59661865
-0.59448242
-0.59234619
-0.59051514
-0.58868408
-0.58654785
-0.58441162
-0.58197021
-0.57952881
-0.5770874
-0.574646
-0.57250977
-0.57006836
-0.56793213
-0.56610107
-0.5645752
-0.56304932
-0.56152344
-0.56030273
-0.55908203
-0.55786133
-0.55664062
-0.55511475
-0.55389404
-0.55267334
-0.55114746
-0.54992676
-0.54840088
-0.54718018
-0.5456543
-0.54443359
-0.54321289
-0.54229736
-0.54107666
-0.54046631
-0.54016113
-0.54016113
-0.54046631
-0.54168701
-0.54290771
-0.54504395
-0.54748535
-0.55023193
-0.55328369
-0.55664062
-0.56091309
-0.56549072
-0.57037354
-0.57556152
-0.58135986
-0.5871582
-0.59326172
-0.59967041
-0.6060791
-0.61248779
-0.61889648
-0.62530518
-0.63171387
-0.63781738
-0.64422607
-0.65063477
-0.65704346
-0.66375732
-0.67047119
-0.67718506
-0.6842041
-0.69122314
-0.69793701
-0.70465088
-0.71105957
-0.71716309
-0.7232666
-0.72906494
-0.73486328
-0.74066162
-0.74615479
-0.75134277
-0.75653076
-0.76141357
-0.76568604
-0.76965332
-0.77331543
-0.77636719
-0.77941895
-0.78216553
-0.78491211
-0.78796387
-0.79071045
-0.79345703
-0.79650879
-0.79925537
-0.80169678
-0.80413818
-0.80688477
-0.809021
-0.8114624
-0.81359863
-0.81542969
-0.81756592
-0.81939697
-0.82122803
-0.82275391
-0.82427979
-0.82550049
-0.82672119
-0.82794189
-0.82885742
-0.82977295
-0.8303833
-0.83129883
-0.83190918
-0.83251953
-0.83282471
-0.83312988
-0.83312988
-0.83282471
-0.83251953
-0.83221436
-0.831604
-0.83099365
-0.83007812
-0.82885742
-0.82794189
-0.82672119
-0.82580566
-0.82458496
-0.82366943
-0.82275391
-0.82214355
-0.82122803
-0.82092285
-0.82061768
-0.8203125
-0.8203125
-0.82061768
-0.82092285
-0.82122803
-0.8215332
-0.82183838
-0.82183838
-0.8215332
-0.82122803
-0.82061768
-0.82000732
-0.81939697
-0.81817627
-0.81726074
-0.81604004
-0.81451416
-0.81329346
-0.81176758
-0.8102417
-0.80871582
-0.80749512
-0.80627441
-0.80535889
-0.80444336
-0.80413818
-0.80383301
-0.80352783
-0.80352783
-0.80322266
-0.80322266
-0.80291748
-0.8026123
-0.8026123
-0.80230713
-0.8026123
-0.8026123
-0.80291748
-0.80291748
-0.80291748
-0.8026123
-0.80200195
-0.8013916
-0.80078125
-0.8001709
-0.79925537
-0.79864502
-0.79803467
-0.79742432
-0.79681396
-0.79589844
-0.79498291
-0.79406738
-0.79284668
-0.79162598
-0.79040527
-0.78918457
-0.78857422
-0.78765869
-0.78704834
-0.78613281
-0.78521729
-0.78430176
-0.78369141
-0.78308105
-0.78277588
-0.7824707
-0.7824707
-0.78277588
-0.78308105
-0.78338623
-0.78399658
-0.78430176
-0.78430176
-0.78491211
-0.78521729
-0.78552246
-0.78613281
-0.78674316
-0.78735352
-0.78796387
-0.78857422
-0.78887939
-0.78918457
-0.78918457
-0.78918457
-0.78918457
-0.78887939
-0.78887939
-0.78887939
-0.78887939
-0.78857422
-0.78826904
-0.78796387
-0.78735352
-0.78704834
-0.78704834
-0.78674316
-0.78643799
-0.78613281
-0.78582764
-0.78552246
-0.78521729
-0.78521729
-0.78521729
-0.78521729
-0.78491211
-0.78491211
-0.78491211
-0.78491211
-0.78491211
-0.78521729
-0.78552246
-0.78552246
-0.78552246
-0.78552246
-0.78552246
-0.78552246
-0.78521729
-0.78491211
-0.78491211
-0.78460693
-0.78460693
-0.78430176
-0.78430176
-0.78399658
-0.78399658
-0.78430176
-0.78430176
-0.78460693
-0.78460693
-0.78491211
-0.78521729
-0.78582764
-0.78613281
-0.78674316
-0.78735352
-0.78826904
-0.78887939
-0.78948975
-0.78979492
-0.7901001
-0.7901001
-0.7901001
-0.7901001
-0.7901001
-0.7901001
-0.7901001
-0.78979492
-0.78948975
-0.78918457
-0.78887939
-0.78857422
-0.78796387
-0.78765869
-0.78704834
-0.78674316
-0.78643799
-0.78613281
-0.78582764
-0.78552246
-0.78521729
-0.78460693
-0.78430176
-0.78399658
-0.78399658
-0.78399658
-0.78399658
-0.78399658
-0.78399658
-0.78430176
-0.78491211
-0.78552246
-0.78613281
-0.78674316
-0.78735352
-0.78796387
-0.78857422
-0.78887939
-0.78918457
-0.78918457
-0.78948975
-0.78979492
-0.7901001
-0.7901001
-0.7901001
-0.78979492
-0.78948975
-0.78857422
-0.78765869
-0.78704834
-0.78613281
-0.78521729
-0.78460693
-0.78399658
-0.78369141
-0.78338623
-0.78338623
-0.78369141
-0.78399658
-0.78430176
-0.78491211
-0.78552246
-0.78613281
-0.78674316
-0.78704834
-0.78765869
-0.78796387
-0.78796387
-0.78796387
-0.78796387
-0.78765869
-0.78735352
-0.78704834
-0.78643799
-0.78582764
-0.78521729
-0.78430176
-0.78338623
-0.7824707
-0.78125
-0.78063965
-0.78033447
-0.78033447
-0.78063965
-0.78125
-0.78186035
-0.7824707
-0.78308105
-0.78369141
-0.78460693
-0.78552246
-0.78643799
-0.78765869
-0.78857422
-0.78948975
-0.7901001
-0.79071045
-0.79101562
-0.79162598
-0.79162598
-0.79162598
-0.79162598
-0.7913208
-0.79101562
-0.79040527
-0.78979492
-0.78918457
-0.78857422
-0.78796387
-0.78796387
-0.78796387
-0.78796387
-0.78857422
-0.78918457
-0.7901001
-0.79162598
-0.79315186
-0.79467773
-0.79620361
-0.79772949
-0.7989502
-0.80047607
-0.8013916
-0.80200195
-0.80200195
-0.8013916
-0.8001709
-0.79864502
-0.79711914
-0.79498291
-0.7925415
-0.7901001
-0.78704834
-0.78430176
-0.78094482
-0.77789307
-0.77484131
-0.77148438
-0.76812744
-0.76477051
-0.76171875
-0.75866699
-0.75561523
-0.75286865
-0.75012207
-0.74768066
-0.74493408
-0.7421875
-0.73944092
-0.73669434
-0.73425293
-0.73181152
-0.72967529
-0.72784424
-0.72601318
-0.72479248
-0.72418213
-0.72387695
-0.72418213
-0.7244873
-0.72509766
-0.72570801
-0.72601318
-0.72631836
-0.72631836
-0.72631836
-0.72601318
-0.72540283
-0.72479248
-0.72387695
-0.72235107
-0.72052002
-0.71807861
-0.71563721
-0.71258545
-0.70922852
-0.70617676
-0.70281982
-0.69946289
-0.69641113
-0.69366455
-0.69091797
-0.68847656
-0.68634033
-0.68450928
-0.68328857
-0.68237305
-0.68206787
-0.68237305
-0.68328857
-0.68481445
-0.68695068
-0.68939209
-0.69244385
-0.69610596
-0.70037842
-0.70495605
-0.71014404
-0.71533203
-0.72052002
-0.72570801
-0.730896
-0.73577881
-0.74066162
-0.74554443
-0.75042725
-0.75531006
-0.76019287
-0.76477051
-0.76873779
-0.7723999
-0.77575684
-0.77880859
-0.78155518
-0.78430176
-0.78704834
-0.78979492
-0.79223633
-0.79498291
-0.79742432
-0.79956055
-0.8013916
-0.80291748
-0.80413818
-0.80566406
-0.80688477
-0.80780029
-0.80871582
-0.80932617
-0.80993652
-0.8102417
-0.81054688
-0.81054688
-0.81054688
-0.81085205
-0.81085205
-0.81054688
-0.8102417
-0.80993652
-0.80932617
-0.80871582
-0.80780029
-0.80657959
-0.80535889
-0.80413818
-0.80322266
-0.80230713
-0.80169678
-0.80108643
-0.80047607
-0.8001709
-0.79986572
-0.79956055
-0.79956055
-0.79956055
-0.79986572
-0.80047607
-0.80108643
-0.80169678
-0.8026123
-0.80322266
-0.80383301
-0.80413818
-0.80413818
-0.80413818
-0.80413818
-0.80383301
-0.80383301
-0.80383301
-0.80383301
-0.80383301
-0.80383301
-0.80383301
-0.80383301
-0.80383301
-0.80352783
-0.80352783
-0.80352783
-0.80352783
-0.80352783
-0.80322266
-0.80322266
-0.80291748
-0.8026123
-0.80230713
-0.80200195
-0.8013916
-0.80047607
-0.79986572
-0.7989502
-0.79833984
-0.79772949
-0.79711914
-0.79681396
-0.79681396
-0.79772949
-0.79925537
-0.80108643
-0.80413818
-0.80780029
-0.81237793
-0.81756592
-0.82366943
-0.83007812
-0.83709717
-0.84442139
-0.85144043
-0.85876465
-0.86517334
-0.87127686
-0.87615967
-0.87982178
-0.88226318
-0.88256836
-0.88104248
-0.87768555
-0.87188721
-0.86364746
-0.85266113
-0.8392334
-0.82244873
-0.8026123
-0.77972412
-0.75286865
-0.72265625
-0.68847656
-0.65063477
-0.60882568
-0.56335449
-0.51391602
-0.46142578
-0.40527344
-0.34698486
-0.28686523
-0.22583008
-0.16479492
-0.10467529
-0.046386719
0.0085449219
0.058898926
0.10345459
0.14068604
0.17059326
0.19195557
0.20507812
0.20965576
0.2053833
0.19287109
0.17211914
0.14312744
0.10742188
0.065612793
0.018615723
-0.031738281
-0.084838867
-0.13916016
-0.19348145
-0.24688721
-0.29907227
-0.34912109
-0.39642334
-0.440979
-0.48217773
-0.51971436
-0.55358887
-0.58349609
-0.60974121
-0.63262939
-0.65185547
-0.66833496
-0.68206787
-0.6930542
-0.70220947
-0.70922852
-0.71472168
-0.71868896
-0.72174072
-0.72357178
-0.72479248
-0.72540283
-0.72540283
-0.72540283
-0.72540283
-0.72509766
-0.72479248
-0.72509766
-0.72540283
-0.72601318
-0.72723389
-0.72845459
-0.73028564
-0.73181152
-0.73394775
-0.73608398
-0.73822021
-0.74035645
-0.74249268
-0.74462891
-0.74645996
-0.74798584
-0.74981689
-0.75164795
-0.75317383
-0.75469971
-0.75622559
-0.75714111
-0.75775146
-0.75805664
-0.75805664
-0.75805664
-0.75805664
-0.75805664
-0.75805664
-0.75775146
-0.75775146
-0.75744629
-0.75714111
-0.75653076
-0.75622559
-0.75592041
-0.75561523
-0.75500488
-0.75408936
-0.75317383
-0.75195312
-0.75073242
-0.74951172
-0.74859619
-0.74737549
-0.74676514
-0.74584961
-0.74493408
-0.74401855
-0.74310303
-0.74188232
-0.7409668
-0.74035645
-0.73974609
-0.73944092
-0.73913574
-0.73913574
-0.73883057
-0.73883057
-0.73852539
-0.73822021
-0.73791504
-0.73730469
-0.73638916
-0.73547363
-0.73455811
-0.7333374
-0.73181152
-0.73028564
-0.72875977
-0.72692871
-0.72509766
-0.72296143
-0.72113037
-0.71929932
-0.71746826
-0.71594238
-0.71472168
-0.7131958
-0.71166992
-0.71014404
-0.70861816
-0.70739746
-0.70587158
-0.70465088
-0.70343018
-0.70220947
-0.70129395
-0.70007324
-0.69915771
-0.69824219
-0.69732666
-0.69671631
-0.69610596
-0.69519043
-0.6942749
-0.69335938
-0.69213867
-0.69061279
-0.68908691
-0.68695068
-0.68481445
-0.6829834
-0.68084717
-0.67871094
-0.67687988
-0.67474365
-0.67260742
-0.67047119
-0.66802979
-0.66558838
-0.6628418
-0.66040039
-0.65795898
-0.65582275
-0.6539917
-0.65246582
-0.65124512
-0.65002441
-0.64880371
-0.64727783
-0.64575195
-0.64422607
-0.64239502
-0.64025879
-0.63842773
-0.6362915
-0.6338501
-0.63171387
-0.62957764
-0.62713623
-0.62469482
-0.62194824
-0.61889648
-0.61553955
-0.61218262
-0.60913086
-0.60577393
-0.60241699
-0.59906006
-0.5960083
-0.59295654
-0.58959961
-0.58654785
-0.58319092
-0.57983398
-0.57678223
-0.57342529
-0.57067871
-0.56762695
-0.56518555
-0.56274414
-0.56060791
-0.55847168
-0.55664062
-0.55480957
-0.55297852
-0.55084229
-0.54870605
-0.54626465
-0.54382324
-0.54107666
-0.5380249
-0.53527832
-0.53222656
-0.52886963
-0.52520752
-0.52154541
-0.5178833
-0.51391602
-0.50994873
-0.50628662
-0.50262451
-0.49957275
-0.49682617
-0.49438477
-0.49255371
-0.49102783
-0.4901123
-0.48919678
-0.48858643
-0.48828125
-0.4876709
-0.48706055
-0.48675537
-0.4864502
-0.48583984
-0.48553467
-0.48522949
-0.48492432
-0.48461914
-0.48431396
-0.48431396
-0.48431396
-0.48492432
-0.48553467
-0.48675537
-0.48858643
-0.49072266
-0.49346924
-0.49682617
-0.50048828
-0.50506592
-0.50994873
-0.51483154
-0.52032471
-0.5255127
-0.53131104
-0.53710938
-0.54321289
-0.54931641
-0.55541992
-0.56182861
-0.56793213
-0.57434082
-0.58074951
-0.58685303
-0.59295654
-0.59906006
-0.60516357
-0.61126709
-0.61706543
-0.62286377
-0.62866211
-0.63415527
-0.63964844
-0.64483643
-0.65032959
-0.65582275
-0.66101074
-0.66650391
-0.67199707
-0.67749023
-0.6829834
-0.68817139
-0.69335938
-0.69854736
-0.70343018
-0.70800781
-0.71258545
-0.71655273
-0.72021484
-0.7232666
-0.72601318
-0.72814941
-0.72998047
-0.73150635
-0.73242188
-0.73303223
-0.7333374
-0.73364258
-0.73364258
-0.73394775
-0.73425293
-0.73486328
-0.73547363
-0.73577881
-0.73638916
-0.73699951
-0.73822021
-0.73913574
-0.74035645
-0.74157715
-0.74279785
-0.74371338
-0.74462891
-0.74554443
-0.74615479
-0.74645996
-0.74676514
-0.74707031
-0.74707031
-0.74676514
-0.74676514
-0.74645996
-0.74615479
-0.74584961
-0.74584961
-0.74615479
-0.74645996
-0.74676514
-0.74737549
-0.74768066
-0.74829102
-0.74920654
-0.75042725
-0.75164795
-0.75256348
-0.75378418
-0.75469971
-0.75592041
-0.75683594
-0.75744629
-0.75805664
-0.75866699
-0.75897217
-0.75927734
-0.75927734
-0.75927734
-0.75958252
-0.75958252
-0.75927734
-0.75897217
-0.75836182
-0.75775146
-0.75714111
-0.75622559
-0.75561523
-0.75469971
-0.75408936
-0.753479
-0.75286865
-0.75256348
-0.75256348
-0.75256348
-0.75256348
-0.75286865
-0.75286865
-0.75256348
-0.75256348
-0.7522583
-0.75195312
-0.75164795
-0.75164795
-0.75195312
-0.75195312
-0.75164795
-0.75134277
-0.7510376
-0.75042725
-0.74981689
-0.74890137
-0.74829102
-0.74798584
-0.74737549
-0.74707031
-0.74676514
-0.74645996
-0.74645996
-0.74645996
-0.74676514
-0.74707031
-0.74768066
-0.74798584
-0.74829102
-0.74859619
-0.74859619
-0.74859619
-0.74829102
-0.74768066
-0.74707031
-0.74645996
-0.74584961
-0.74523926
-0.74432373
-0.7434082
-0.74279785
-0.74188232
-0.74127197
-0.74066162
-0.74035645
-0.74005127
-0.74005127
-0.74005127
-0.74035645
-0.74066162
-0.74066162
-0.7409668
-0.74127197
-0.74157715
-0.7421875
-0.74279785
-0.74310303
-0.74310303
-0.7434082
-0.74310303
-0.74310303
-0.74279785
-0.74249268
-0.74188232
-0.74188232
-0.74157715
-0.74157715
-0.74188232
-0.74188232
-0.74188232
-0.74157715
-0.74127197
-0.7409668
-0.74035645
-0.74005127
-0.74005127
-0.74005127
-0.74035645
-0.7409668
-0.74188232
-0.74249268
-0.7434082
-0.74401855
-0.74493408
-0.74584961
-0.74676514
-0.74768066
-0.74859619
-0.74951172
-0.75042725
-0.7510376
-0.75134277
-0.75134277
-0.7510376
-0.75042725
-0.74951172
-0.74829102
-0.74707031
-0.74554443
-0.74401855
-0.74279785
-0.74157715
-0.7409668
-0.74035645
-0.74005127
-0.74035645
-0.7409668
-0.74188232
-0.74310303
-0.74462891
-0.74584961
-0.74737549
-0.74859619
-0.75012207
-0.75134277
-0.75256348
-0.75378418
-0.75500488
-0.75592041
-0.75622559
-0.75683594
-0.75683594
-0.75714111
-0.75714111
-0.75744629
-0.75744629
-0.75805664
-0.75836182
-0.75897217
-0.7598877
-0.76080322
-0.76171875
-0.76263428
-0.7635498
-0.76416016
-0.76446533
-0.76507568
-0.76538086
-0.76599121
-0.76629639
-0.76660156
-0.76660156
-0.76690674
-0.76721191
-0.76721191
-0.76721191
-0.76721191
-0.76690674
-0.76690674
-0.76660156
-0.76660156
-0.76660156
-0.76660156
-0.76690674
-0.76721191
-0.76751709
-0.76782227
-0.76812744
-0.76843262
-0.76843262
-0.76873779
-0.76873779
-0.76904297
-0.76934814
-0.7699585
-0.77056885
-0.77178955
-0.77270508
-0.77331543
-0.77392578
-0.77423096
-0.77423096
-0.77423096
-0.77453613
-0.77453613
-0.77453613
-0.77423096
-0.77392578
-0.77301025
-0.77209473
-0.77087402
-0.76965332
-0.76843262
-0.76751709
-0.76629639
-0.76538086
-0.76446533
-0.76385498
-0.76324463
-0.76293945
-0.76263428
-0.7623291
-0.76202393
-0.76171875
-0.76141357
-0.7611084
-0.7611084
-0.76080322
-0.76019287
-0.75958252
-0.75805664
-0.75622559
-0.75408936
-0.75134277
-0.74829102
-0.74493408
-0.74127197
-0.73760986
-0.73364258
-0.72967529
-0.72570801
-0.7220459
-0.71838379
-0.71533203
-0.71228027
-0.70983887
-0.70800781
-0.70648193
-0.70526123
-0.70465088
-0.70404053
-0.70373535
-0.70404053
-0.70495605
-0.70648193
-0.70770264
-0.70892334
-0.70983887
-0.71014404
-0.71014404
-0.70983887
-0.70922852
-0.70861816
-0.70770264
-0.70678711
-0.70526123
-0.70373535
-0.7019043
-0.69976807
-0.69763184
-0.69549561
-0.6930542
-0.69091797
-0.68878174
-0.68695068
-0.68511963
-0.68359375
-0.68206787
-0.68054199
-0.67962646
-0.67932129
-0.67932129
-0.67962646
-0.68054199
-0.6817627
-0.68389893
-0.68664551
-0.69000244
-0.6942749
-0.69915771
-0.7043457
-0.70983887
-0.71594238
-0.7220459
-0.72845459
-0.73486328
-0.7409668
-0.74676514
-0.75256348
-0.75775146
-0.7623291
-0.76660156
-0.77026367
-0.77362061
-0.77636719
-0.77880859
-0.78063965
-0.78216553
-0.78308105
-0.78430176
-0.78521729
-0.78674316
-0.78796387
-0.78948975
-0.79101562
-0.7925415
-0.79406738
-0.79559326
-0.79681396
-0.79772949
-0.79864502
-0.79925537
-0.79956055
-0.8001709
-0.8001709
-0.80047607
-0.8001709
-0.79986572
-0.79956055
-0.7989502
-0.79833984
-0.79742432
-0.79681396
-0.79589844
-0.79498291
-0.79437256
-0.79376221
-0.79315186
-0.7925415
-0.79193115
-0.7913208
-0.79101562
-0.79071045
-0.79040527
-0.7901001
-0.7901001
-0.7901001
-0.7901001
-0.7901001
-0.7901001
-0.7901001
-0.7901001
-0.7901001
-0.79040527
-0.79101562
-0.79162598
-0.7925415
-0.79345703
-0.79437256
-0.79498291
-0.79589844
-0.79681396
-0.79772949
-0.79833984
-0.7989502
-0.7989502
-0.7989502
-0.79864502
-0.79833984
-0.79803467
-0.79742432
-0.79650879
-0.79559326
-0.79406738
-0.7925415
-0.79040527
-0.78857422
-0.78643799
-0.78491211
-0.78338623
-0.7824707
-0.78155518
-0.78094482
-0.78063965
-0.78063965
-0.78094482
-0.78186035
-0.78277588
-0.78460693
-0.78704834
-0.78979492
-0.79345703
-0.79742432
-0.80169678
-0.80657959
-0.81176758
-0.81756592
-0.82336426
-0.82946777
-0.83557129
-0.8416748
-0.84716797
-0.85235596
-0.85632324
-0.85968018
-0.86151123
-0.86181641
-0.86090088
-0.85784912
-0.85266113
-0.84564209
-0.83648682
-0.82489014
-0.81054688
-0.79376221
-0.77362061
-0.75012207
-0.7232666
-0.69244385
-0.65765381
-0.61889648
-0.57617188
-0.52978516
-0.47973633
-0.42633057
-0.37017822
-0.31158447
-0.2520752
-0.19195557
-0.13183594
-0.073242188
-0.01739502
0.034790039
0.081176758
0.12145996
0.15441895
0.17913818
0.19592285
0.20446777
0.20477295
0.1965332
0.18005371
0.15594482
0.12451172
0.086975098
0.043945312
-0.002746582
-0.052490234
-0.10345459
-0.1550293
-0.20599365
-0.25543213
-0.30303955
-0.34851074
-0.39123535
-0.4309082
-0.4675293
-0.50079346
-0.53100586
-0.55786133
-0.58197021
-0.60272217
-0.62072754
-0.6362915
-0.64941406
-0.66070557
-0.67016602
-0.67810059
-0.68450928
-0.68969727
-0.69366455
-0.69671631
-0.69915771
-0.70068359
-0.70159912
-0.70220947
-0.70220947
-0.70220947
-0.70159912
-0.70098877
-0.70068359
-0.70007324
-0.70007324
-0.70068359
-0.70159912
-0.70281982
-0.70465088
-0.70648193
-0.70892334
-0.71105957
-0.71350098
-0.71563721
-0.71807861
-0.72052002
-0.72265625
-0.72479248
-0.72631836
-0.72753906
-0.72845459
-0.72875977
-0.72875977
-0.72845459
-0.72753906
-0.72662354
-0.72509766
-0.72357178
-0.7220459
-0.72021484
-0.71868896
-0.71716309
-0.71594238
-0.7144165
-0.71350098
-0.71228027
-0.71166992
-0.71136475
-0.71105957
-0.71105957
-0.71075439
-0.71044922
-0.71014404
-0.70983887
-0.70922852
-0.70861816
-0.70770264
-0.70678711
-0.70556641
-0.70465088
-0.70373535
-0.703125
-0.70251465
-0.70220947
-0.7019043
-0.7019043
-0.70159912
-0.70159912
-0.7019043
-0.70220947
-0.70251465
-0.70251465
-0.70251465
-0.70251465
-0.70220947
-0.70159912
-0.70098877
-0.70007324
-0.69915771
-0.69793701
-0.69671631
-0.69488525
-0.69335938
-0.69152832
-0.68939209
-0.68756104
-0.6854248
-0.68359375
-0.68206787
-0.68054199
-0.67901611
-0.67779541
-0.67687988
-0.67596436
-0.67565918
-0.67504883
-0.67474365
-0.67443848
-0.67443848
-0.6741333
-0.67382812
-0.67352295
-0.67321777
-0.6729126
-0.67260742
-0.67230225
-0.67199707
-0.67138672
-0.67108154
-0.67047119
-0.66955566
-0.66864014
-0.66711426
-0.6652832
-0.66345215
-0.66131592
-0.65917969
-0.65734863
-0.65551758
-0.65338135
-0.65155029
-0.64910889
-0.64697266
-0.64453125
-0.64239502
-0.64056396
-0.63873291
-0.63751221
-0.6362915
-0.6350708
-0.6338501
-0.63232422
-0.63049316
-0.62896729
-0.62713623
-0.625
-0.62286377
-0.62072754
-0.61828613
-0.61553955
-0.61309814
-0.61004639
-0.6072998
-0.60424805
-0.60150146
-0.59844971
-0.59570312
-0.59295654
-0.59051514
-0.58807373
-0.5859375
-0.58380127
-0.58197021
-0.57983398
-0.57800293
-0.57617188
-0.57403564
-0.57220459
-0.57006836
-0.56762695
-0.56488037
-0.56182861
-0.55847168
-0.55511475
-0.55175781
-0.5480957
-0.54473877
-0.54138184
-0.5380249
-0.53466797
-0.53131104
-0.5279541
-0.52459717
-0.52154541
-0.51849365
-0.51544189
-0.51269531
-0.50994873
-0.50720215
-0.50506592
-0.50262451
-0.50079346
-0.4989624
-0.49682617
-0.49530029
-0.49346924
-0.49194336
-0.49041748
-0.4888916
-0.4876709
-0.48675537
-0.48553467
-0.48461914
-0.48370361
-0.48309326
-0.48248291
-0.48217773
-0.48217773
-0.48248291
-0.48278809
-0.48370361
-0.48522949
-0.48675537
-0.4888916
-0.49133301
-0.49407959
-0.49682617
-0.50018311
-0.50384521
-0.5078125
-0.51208496
-0.5166626
-0.52154541
-0.5267334
-0.53161621
-0.53649902
-0.54138184
-0.54626465
-0.55114746
-0.55603027
-0.56121826
-0.56640625
-0.57159424
-0.5770874
-0.58258057
-0.58776855
-0.59326172
-0.59875488
-0.60424805
-0.61004639
-0.61584473
-0.62164307
-0.62774658
-0.6338501
-0.63995361
-0.64605713
-0.65216064
-0.65826416
-0.6640625
-0.66986084
-0.67504883
-0.67993164
-0.68511963
-0.68969727
-0.69458008
-0.69946289
-0.70404053
-0.70861816
-0.71258545
-0.71594238
-0.71929932
-0.72235107
-0.72540283
-0.72814941
-0.73059082
-0.73303223
-0.73547363
-0.73760986
-0.73944092
-0.7409668
-0.7421875
-0.74310303
-0.74371338
-0.74401855
-0.74401855
-0.74401855
-0.74371338
-0.7434082
-0.74310303
-0.74249268
-0.7421875
-0.7421875
-0.74188232
-0.74188232
-0.74188232
-0.74157715
-0.74157715
-0.74188232
-0.7421875
-0.74249268
-0.7434082
-0.74401855
-0.74493408
-0.74554443
-0.74615479
-0.74645996
-0.74676514
-0.74707031
-0.74737549
-0.74737549
-0.74768066
-0.74798584
-0.74859619
-0.74890137
-0.74920654
-0.74920654
-0.74920654
-0.74920654
-0.74920654
-0.74890137
-0.74859619
-0.74829102
-0.74829102
-0.74829102
-0.74859619
-0.74920654
-0.74951172
-0.74981689
-0.75012207
-0.75042725
-0.75042725
-0.75042725
-0.75012207
-0.75012207
-0.74981689
-0.74981689
-0.74951172
-0.74890137
-0.74829102
-0.74737549
-0.74645996
-0.74523926
-0.74432373
-0.74310303
-0.7421875
-0.74157715
-0.7409668
-0.7409668
-0.74066162
-0.74066162
-0.74066162
-0.7409668
-0.7409668
-0.74127197
-0.74127197
-0.74127197
-0.74127197
-0.74127197
-0.7409668
-0.74066162
-0.73974609
-0.73883057
-0.73760986
-0.73608398
-0.73486328
-0.7333374
-0.7321167
-0.73120117
-0.73059082
-0.73028564
-0.73028564
-0.73059082
-0.73120117
-0.73181152
-0.7321167
-0.73272705
-0.73364258
-0.73425293
-0.73547363
-0.73638916
-0.73699951
-0.73760986
-0.73791504
-0.73822021
-0.73852539
-0.73852539
-0.73852539
-0.73822021
-0.73822021
-0.73791504
-0.73760986
-0.73699951
-0.73638916
-0.73577881
-0.73516846
-0.73455811
-0.73394775
-0.7333374
-0.73303223
-0.73242188
-0.73181152
-0.73150635
-0.73120117
-0.730896
-0.73059082
-0.73059082
-0.730896
-0.73120117
-0.73181152
-0.73242188
-0.73303223
-0.73364258
-0.73425293
-0.73516846
-0.73638916
-0.73760986
-0.73852539
-0.73974609
-0.74035645
-0.7409668
-0.74157715
-0.74188232
-0.74188232
-0.7421875
-0.7421875
-0.74188232
-0.74188232
-0.74188232
-0.74157715
-0.74127197
-0.7409668
-0.74066162
-0.74035645
-0.74005127
-0.73974609
-0.73944092
-0.73944092
-0.73974609
-0.74035645
-0.7409668
-0.74157715
-0.74249268
-0.74310303
-0.74401855
-0.74493408
-0.74584961
-0.74707031
-0.74798584
-0.74920654
-0.75012207
-0.75134277
-0.7522583
-0.75317383
-0.75378418
-0.75439453
-0.75469971
-0.75469971
-0.75439453
-0.75408936
-0.75378418
-0.753479
-0.753479
-0.753479
-0.753479
-0.753479
-0.753479
-0.75317383
-0.75286865
-0.75256348
-0.7522583
-0.7522583
-0.7522583
-0.7522583
-0.7522583
-0.75256348
-0.75256348
-0.75256348
-0.75195312
-0.75164795
-0.7510376
-0.75042725
-0.75042725
-0.75042725
-0.75042725
-0.75042725
-0.75073242
-0.7510376
-0.75134277
-0.75164795
-0.7522583
-0.75286865
-0.75378418
-0.75469971
-0.75561523
-0.75683594
-0.75805664
-0.75897217
-0.76019287
-0.76141357
-0.7623291
-0.76324463
-0.76416016
-0.76507568
-0.76599121
-0.76660156
-0.76690674
-0.76690674
-0.76690674
-0.76690674
-0.76660156
-0.76599121
-0.76568604
-0.76538086
-0.76507568
-0.76446533
-0.76416016
-0.7635498
-0.76293945
-0.76202393
-0.76141357
-0.76049805
-0.76019287
-0.7598877
-0.7598877
-0.7598877
-0.76019287
-0.76080322
-0.76171875
-0.7623291
-0.76293945
-0.7635498
-0.76416016
-0.76477051
-0.76507568
-0.76568604
-0.76568604
-0.76538086
-0.76507568
-0.76477051
-0.76416016
-0.76324463
-0.7623291
-0.7611084
-0.7598877
-0.75866699
-0.75714111
-0.75561523
-0.75439453
-0.75286865
-0.75134277
-0.74981689
-0.74829102
-0.74676514
-0.74523926
-0.74371338
-0.74188232
-0.73974609
-0.73699951
-0.73425293
-0.73120117
-0.72753906
-0.72387695
-0.71990967
-0.71594238
-0.7119751
-0.70800781
-0.7043457
-0.70068359
-0.69732666
-0.69458008
-0.6918335
-0.68969727
-0.68817139
-0.68664551
-0.68603516
-0.68572998
-0.68603516
-0.68664551
-0.68786621
-0.68939209
-0.69091797
-0.69213867
-0.6930542
-0.69396973
-0.6942749
-0.6942749
-0.69366455
-0.6930542
-0.69152832
-0.69000244
-0.68756104
-0.68511963
-0.68237305
-0.67932129
-0.67626953
-0.67260742
-0.66925049
-0.66589355
-0.6628418
-0.65979004
-0.65734863
-0.6552124
-0.65368652
-0.65246582
-0.65185547
-0.65216064
-0.65307617
-0.65490723
-0.65734863
-0.66009521
-0.66345215
-0.66741943
-0.67169189
-0.67626953
-0.68145752
-0.68695068
-0.69274902
-0.69854736
-0.7043457
-0.71014404
-0.71594238
-0.72174072
-0.72723389
-0.73242188
-0.73730469
-0.7421875
-0.74645996
-0.75073242
-0.75469971
-0.75836182
-0.76202393
-0.76568604
-0.76934814
-0.77301025
-0.77606201
-0.77911377
-0.78186035
-0.78399658
-0.78613281
-0.78796387
-0.78918457
-0.79040527
-0.7913208
-0.79193115
-0.79193115
-0.79162598
-0.7913208
-0.79040527
-0.78948975
-0.78826904
-0.78704834
-0.78582764
-0.78460693
-0.78338623
-0.7824707
-0.78186035
-0.78125
-0.78094482
-0.78094482
-0.78125
-0.78155518
-0.78216553
-0.78308105
-0.78369141
-0.78460693
-0.78521729
-0.78582764
-0.78643799
-0.78674316
-0.78735352
-0.78765869
-0.78796387
-0.78826904
-0.78826904
-0.78826904
-0.78857422
-0.78857422
-0.78887939
-0.78887939
-0.78918457
-0.78948975
-0.7901001
-0.79071045
-0.79162598
-0.7925415
-0.79376221
-0.79467773
-0.79559326
-0.79620361
-0.79681396
-0.79681396
-0.79681396
-0.79681396
-0.79620361
-0.79589844
-0.79498291
-0.79406738
-0.79315186
-0.79223633
-0.79071045
-0.78948975
-0.78857422
-0.78735352
-0.78674316
-0.78613281
-0.78552246
-0.78521729
-0.78521729
-0.78521729
-0.78582764
-0.78674316
-0.78796387
-0.78979492
-0.79162598
-0.79406738
-0.79711914
-0.80078125
-0.80474854
-0.80963135
-0.81481934
-0.82092285
-0.82733154
-0.83435059
-0.84136963
-0.84838867
-0.85540771
-0.86181641
-0.86761475
-0.87219238
-0.87554932
-0.87799072
-0.87860107
-0.87738037
-0.87432861
-0.86883545
-0.86120605
-0.85113525
-0.83831787
-0.82244873
-0.80322266
-0.78033447
-0.75378418
-0.7232666
-0.68847656
-0.64971924
-0.60699463
-0.56030273
-0.50994873
-0.45623779
-0.3994751
-0.340271
-0.27923584
-0.21759033
-0.15594482
-0.09552002
-0.037841797
0.015869141
0.064086914
0.10620117
0.14129639
0.16845703
0.18737793
0.19775391
0.19958496
0.19287109
0.17791748
0.15472412
0.12451172
0.087585449
0.04486084
-0.0018310547
-0.051879883
-0.10406494
-0.15716553
-0.20965576
-0.26123047
-0.31097412
-0.35827637
-0.40283203
-0.44433594
-0.48248291
-0.51696777
-0.5480957
-0.57556152
-0.59936523
-0.62011719
-0.63781738
-0.652771
-0.6652832
-0.67565918
-0.6842041
-0.69091797
-0.69580078
-0.69976807
-0.70251465
-0.70465088
-0.70617676
-0.70709229
-0.70770264
-0.70770264
-0.70770264
-0.70739746
-0.70739746
-0.70739746
-0.70739746
-0.70770264
-0.70831299
-0.70922852
-0.71044922
-0.7119751
-0.71380615
-0.71563721
-0.71746826
-0.71929932
-0.72143555
-0.7232666
-0.72509766
-0.72692871
-0.72875977
-0.73028564
-0.73181152
-0.7333374
-0.73425293
-0.73486328
-0.73547363
-0.73577881
-0.73608398
-0.73577881
-0.73547363
-0.73486328
-0.73425293
-0.73364258
-0.73272705
-0.73181152
-0.730896
-0.72998047
-0.72906494
-0.72845459
-0.72784424
-0.72784424
-0.72784424
-0.72814941
-0.72845459
-0.72845459
-0.72875977
-0.72906494
-0.72937012
-0.72998047
-0.73028564
-0.73059082
-0.730896
-0.730896
-0.730896
-0.73028564
-0.72967529
-0.72845459
-0.72692871
-0.72540283
-0.72387695
-0.72235107
-0.72113037
-0.71960449
-0.71807861
-0.71685791
-0.71563721
-0.71472168
-0.71411133
-0.71380615
-0.71411133
-0.7144165
-0.71502686
-0.71563721
-0.71594238
-0.71624756
-0.71624756
-0.71594238
-0.71563721
-0.71502686
-0.7144165
-0.71350098
-0.7119751
-0.71044922
-0.70861816
-0.70678711
-0.70465088
-0.70220947
-0.69976807
-0.69732666
-0.69488525
-0.69274902
-0.69091797
-0.68908691
-0.68756104
-0.68603516
-0.68481445
-0.68359375
-0.68237305
-0.68115234
-0.67993164
-0.67871094
-0.67779541
-0.67657471
-0.67565918
-0.67443848
-0.67321777
-0.67199707
-0.67077637
-0.66955566
-0.66833496
-0.66680908
-0.6652832
-0.66375732
-0.66223145
-0.66040039
-0.65856934
-0.65673828
-0.65490723
-0.65307617
-0.65124512
-0.64941406
-0.64758301
-0.64544678
-0.64361572
-0.64147949
-0.63903809
-0.63690186
-0.63446045
-0.63232422
-0.63049316
-0.62835693
-0.62652588
-0.62469482
-0.62255859
-0.62072754
-0.61889648
