dataJAMESwristwristankle.acq
1.0 msec/sample
1 channels
ECG (.05 - 35 Hz)
mV
CH2,
132040,
0.12451172
0.1260376
0.1272583
0.128479
0.12939453
0.13000488
0.13061523
0.13153076
0.13244629
0.13397217
0.13580322
0.13824463
0.14099121
0.14373779
0.14648438
0.14892578
0.15106201
0.15380859
0.15625
0.15869141
0.16082764
0.16296387
0.16479492
0.16662598
0.16845703
0.17028809
0.17150879
0.17211914
0.17242432
0.17211914
0.17150879
0.17028809
0.16906738
0.16723633
0.1651001
0.16296387
0.16082764
0.15838623
0.15594482
0.15350342
0.15045166
0.1473999
0.14434814
0.14129639
0.13793945
0.13458252
0.13122559
0.1272583
0.12359619
0.12023926
0.11688232
0.11383057
0.11077881
0.10803223
0.10498047
0.10162354
0.09765625
0.093994141
0.090332031
0.086975098
0.083618164
0.080566406
0.077819824
0.075378418
0.073242188
0.071716309
0.070800781
0.070495605
0.070800781
0.071716309
0.072631836
0.073547363
0.074462891
0.075378418
0.076904297
0.078735352
0.080871582
0.082702637
0.08392334
0.084228516
0.083618164
0.082397461
0.08026123
0.078430176
0.076293945
0.074462891
0.072937012
0.072021484
0.070800781
0.069885254
0.069580078
0.069580078
0.070800781
0.07232666
0.074768066
0.077514648
0.080871582
0.084228516
0.087585449
0.090637207
0.093383789
0.095825195
0.097961426
0.099487305
0.10009766
0.10040283
0.10009766
0.099487305
0.098266602
0.096740723
0.095214844
0.093078613
0.090942383
0.088806152
0.086669922
0.084838867
0.083618164
0.082702637
0.082702637
0.082702637
0.083007812
0.083007812
0.082702637
0.082092285
0.081176758
0.080566406
0.08026123
0.079650879
0.079040527
0.078125
0.076904297
0.075378418
0.073547363
0.072021484
0.070800781
0.069885254
0.069580078
0.069274902
0.069274902
0.069274902
0.069274902
0.068969727
0.068969727
0.068664551
0.068969727
0.069274902
0.069580078
0.069580078
0.069885254
0.069580078
0.069580078
0.068969727
0.068359375
0.067138672
0.065307617
0.063781738
0.062255859
0.061035156
0.060424805
0.059814453
0.058898926
0.058288574
0.057678223
0.057678223
0.05859375
0.059814453
0.061645508
0.063476562
0.065612793
0.068664551
0.073547363
0.080871582
0.090637207
0.10253906
0.11688232
0.13305664
0.15167236
0.17181396
0.19378662
0.21728516
0.24261475
0.26977539
0.29785156
0.32623291
0.35400391
0.37902832
0.40008545
0.41625977
0.42633057
0.42999268
0.42633057
0.41564941
0.39794922
0.37384033
0.34393311
0.30883789
0.26916504
0.22644043
0.18096924
0.13458252
0.087890625
0.042724609
0
-0.0390625
-0.073547363
-0.10223389
-0.12481689
-0.14129639
-0.15167236
-0.15625
-0.15625
-0.15228271
-0.14526367
-0.13580322
-0.12451172
-0.11230469
-0.099182129
-0.085754395
-0.07232666
-0.059204102
-0.046691895
-0.035095215
-0.024108887
-0.014038086
-0.0045776367
0.0045776367
0.013122559
0.021972656
0.030517578
0.038452148
0.046081543
0.053405762
0.060119629
0.06652832
0.07232666
0.077819824
0.082702637
0.087585449
0.092773438
0.097961426
0.10284424
0.10742188
0.11138916
0.11474609
0.11688232
0.1184082
0.11901855
0.11932373
0.11993408
0.11993408
0.11993408
0.11901855
0.1171875
0.11474609
0.11138916
0.10742188
0.10284424
0.098876953
0.095214844
0.09185791
0.088500977
0.085144043
0.081481934
0.077819824
0.074768066
0.072631836
0.071716309
0.072021484
0.073547363
0.07598877
0.079040527
0.082397461
0.086364746
0.090332031
0.093994141
0.09765625
0.10070801
0.10345459
0.105896
0.10803223
0.10986328
0.11138916
0.11230469
0.11291504
0.11291504
0.11199951
0.11077881
0.10894775
0.10681152
0.10498047
0.10314941
0.10192871
0.10131836
0.10070801
0.10040283
0.09979248
0.099487305
0.099182129
0.099182129
0.099182129
0.09979248
0.10040283
0.10131836
0.10223389
0.10345459
0.10437012
0.10528564
0.10620117
0.10681152
0.1071167
0.10803223
0.10894775
0.11016846
0.11169434
0.11291504
0.11383057
0.11444092
0.11505127
0.11566162
0.1159668
0.11627197
0.11688232
0.11779785
0.11932373
0.12115479
0.12268066
0.12420654
0.12512207
0.12573242
0.12573242
0.12573242
0.12573242
0.12481689
0.12359619
0.12145996
0.11901855
0.11657715
0.11444092
0.11199951
0.10925293
0.105896
0.10223389
0.098266602
0.095214844
0.093383789
0.092773438
0.093383789
0.094604492
0.096740723
0.098876953
0.10162354
0.10406494
0.10650635
0.10894775
0.11077881
0.11230469
0.11352539
0.11505127
0.11688232
0.1184082
0.12054443
0.12237549
0.12451172
0.12664795
0.128479
0.13000488
0.13092041
0.13153076
0.13244629
0.13366699
0.13519287
0.13702393
0.1385498
0.13946533
0.13977051
0.13977051
0.13916016
0.13824463
0.13702393
0.13549805
0.13427734
0.13305664
0.13183594
0.13092041
0.13000488
0.12969971
0.12969971
0.13061523
0.13183594
0.13305664
0.13458252
0.1361084
0.1373291
0.13916016
0.14099121
0.14312744
0.14587402
0.14862061
0.15167236
0.15472412
0.15716553
0.15960693
0.16204834
0.16387939
0.16601562
0.16784668
0.16998291
0.17211914
0.17425537
0.17608643
0.1776123
0.17852783
0.17883301
0.17883301
0.17944336
0.18005371
0.18096924
0.18157959
0.18188477
0.18127441
0.18066406
0.18005371
0.17944336
0.17913818
0.17883301
0.17944336
0.18005371
0.18096924
0.18218994
0.18371582
0.18585205
0.18829346
0.19104004
0.1940918
0.19714355
0.20019531
0.20324707
0.20629883
0.20935059
0.21240234
0.21514893
0.21759033
0.21972656
0.22125244
0.22216797
0.22247314
0.22247314
0.22186279
0.22125244
0.22064209
0.21972656
0.21942139
0.21911621
0.21972656
0.22064209
0.22247314
0.22399902
0.2243042
0.22369385
0.22186279
0.21942139
0.21697998
0.21453857
0.21209717
0.20965576
0.20721436
0.2041626
0.20080566
0.19683838
0.19165039
0.18585205
0.17944336
0.17303467
0.16662598
0.16052246
0.15472412
0.14892578
0.14373779
0.13916016
0.13549805
0.13275146
0.13092041
0.12908936
0.1272583
0.12542725
0.12359619
0.12207031
0.12084961
0.12023926
0.11993408
0.12054443
0.12115479
0.12176514
0.12207031
0.12145996
0.12054443
0.11901855
0.11688232
0.11444092
0.11169434
0.10864258
0.105896
0.10253906
0.099182129
0.095825195
0.092773438
0.090026855
0.087585449
0.085449219
0.083618164
0.081787109
0.08026123
0.078735352
0.077514648
0.076599121
0.075378418
0.074462891
0.073852539
0.073852539
0.074462891
0.075378418
0.076293945
0.076904297
0.076904297
0.076904297
0.076599121
0.07598877
0.075378418
0.074768066
0.073852539
0.072937012
0.07232666
0.07232666
0.072021484
0.072021484
0.071716309
0.071411133
0.070495605
0.069580078
0.068664551
0.068054199
0.067443848
0.067138672
0.066833496
0.066833496
0.066833496
0.067443848
0.068054199
0.069580078
0.071716309
0.073852539
0.07598877
0.077514648
0.078735352
0.079345703
0.079650879
0.08026123
0.081481934
0.083618164
0.085754395
0.087890625
0.088806152
0.089416504
0.089111328
0.088806152
0.088195801
0.087280273
0.08605957
0.084533691
0.083312988
0.082702637
0.083007812
0.083618164
0.084838867
0.085449219
0.086364746
0.086669922
0.087280273
0.088195801
0.089416504
0.090637207
0.092163086
0.093688965
0.095214844
0.096130371
0.096740723
0.097351074
0.09765625
0.09765625
0.097961426
0.098266602
0.098571777
0.099182129
0.10009766
0.10101318
0.10162354
0.10253906
0.10314941
0.10375977
0.10406494
0.10437012
0.10437012
0.10437012
0.10406494
0.10406494
0.10437012
0.10437012
0.10467529
0.10467529
0.10467529
0.10375977
0.10223389
0.10009766
0.09765625
0.094909668
0.092468262
0.090332031
0.088195801
0.085754395
0.083618164
0.081481934
0.079650879
0.077819824
0.076293945
0.075073242
0.074157715
0.073852539
0.074157715
0.075073242
0.076293945
0.078125
0.080566406
0.083007812
0.085449219
0.087890625
0.090332031
0.092468262
0.094299316
0.096130371
0.097351074
0.098571777
0.099487305
0.10009766
0.10009766
0.09979248
0.098876953
0.098266602
0.097351074
0.096740723
0.095825195
0.095214844
0.094299316
0.093994141
0.093688965
0.093994141
0.094604492
0.095214844
0.096435547
0.097961426
0.099487305
0.10131836
0.10314941
0.10498047
0.1071167
0.10925293
0.11260986
0.11688232
0.12176514
0.12664795
0.13061523
0.13336182
0.13519287
0.1361084
0.13671875
0.13763428
0.1385498
0.13946533
0.14038086
0.14068604
0.14099121
0.14129639
0.14160156
0.14160156
0.14129639
0.14099121
0.14068604
0.14007568
0.13946533
0.13916016
0.1385498
0.13793945
0.13793945
0.13793945
0.13793945
0.13763428
0.1373291
0.1361084
0.1348877
0.13336182
0.13183594
0.13061523
0.12969971
0.128479
0.12756348
0.12664795
0.1260376
0.12542725
0.12512207
0.12481689
0.12451172
0.12420654
0.12329102
0.12176514
0.11993408
0.11749268
0.11505127
0.11230469
0.10894775
0.10559082
0.10223389
0.098571777
0.095214844
0.092163086
0.089416504
0.086669922
0.08392334
0.081176758
0.078735352
0.076599121
0.075378418
0.074768066
0.075378418
0.076904297
0.079345703
0.082092285
0.084838867
0.086975098
0.087890625
0.087890625
0.087280273
0.08605957
0.084838867
0.083312988
0.082092285
0.080566406
0.079040527
0.076904297
0.074462891
0.071716309
0.068969727
0.066223145
0.063476562
0.061340332
0.059814453
0.058898926
0.059204102
0.060424805
0.061950684
0.06439209
0.066833496
0.069274902
0.071716309
0.073852539
0.075378418
0.076599121
0.077209473
0.077514648
0.077209473
0.076599121
0.075683594
0.074462891
0.072631836
0.070495605
0.067749023
0.065002441
0.062255859
0.059814453
0.057373047
0.055847168
0.054626465
0.053710938
0.053100586
0.05279541
0.053405762
0.054321289
0.056152344
0.059204102
0.063171387
0.067443848
0.072021484
0.076293945
0.079956055
0.083312988
0.08605957
0.088195801
0.08972168
0.090942383
0.091247559
0.091247559
0.090637207
0.090332031
0.089416504
0.088500977
0.086669922
0.084838867
0.083312988
0.081787109
0.081176758
0.080871582
0.081176758
0.081787109
0.081787109
0.081787109
0.081481934
0.080871582
0.08026123
0.079040527
0.077514648
0.074768066
0.071411133
0.067443848
0.063171387
0.059204102
0.055847168
0.053100586
0.051269531
0.050964355
0.052185059
0.054931641
0.059509277
0.065917969
0.075073242
0.086975098
0.10253906
0.12145996
0.14312744
0.1675415
0.19378662
0.22155762
0.25085449
0.28106689
0.31188965
0.34210205
0.37078857
0.39642334
0.41778564
0.43426514
0.44464111
0.4486084
0.44555664
0.43518066
0.41778564
0.39428711
0.36468506
0.32958984
0.29022217
0.24749756
0.20172119
0.1550293
0.10772705
0.061340332
0.016784668
-0.024108887
-0.060424805
-0.091552734
-0.11688232
-0.13580322
-0.14831543
-0.1550293
-0.15655518
-0.15380859
-0.1473999
-0.13793945
-0.12573242
-0.11138916
-0.095825195
-0.079650879
-0.062866211
-0.046386719
-0.030517578
-0.014953613
-0.00061035156
0.013427734
0.026245117
0.038452148
0.049438477
0.059509277
0.069274902
0.078125
0.08605957
0.093383789
0.09979248
0.10498047
0.10955811
0.11352539
0.11657715
0.11932373
0.12145996
0.12298584
0.12390137
0.12420654
0.12390137
0.12298584
0.12207031
0.12084961
0.11962891
0.1184082
0.1171875
0.1159668
0.11505127
0.11413574
0.11352539
0.11291504
0.11260986
0.11260986
0.11322021
0.11444092
0.11566162
0.11688232
0.11779785
0.1184082
0.11871338
0.11901855
0.11932373
0.12023926
0.12115479
0.12237549
0.12329102
0.12390137
0.12390137
0.12390137
0.12329102
0.12268066
0.12176514
0.12023926
0.1184082
0.11657715
0.11474609
0.11322021
0.11199951
0.11138916
0.11077881
0.11047363
0.11077881
0.11138916
0.11230469
0.11352539
0.11505127
0.11657715
0.1184082
0.12023926
0.12145996
0.12207031
0.12237549
0.12207031
0.12176514
0.12145996
0.12115479
0.12115479
0.12115479
0.12145996
0.12207031
0.12237549
0.12298584
0.12420654
0.12512207
0.1260376
0.12634277
0.12634277
0.1260376
0.12542725
0.12512207
0.12512207
0.12542725
0.1260376
0.12634277
0.12695312
0.12786865
0.12878418
0.13000488
0.13183594
0.13427734
0.13793945
0.14221191
0.14709473
0.15228271
0.1574707
0.16204834
0.16571045
0.16876221
0.17089844
0.17181396
0.17181396
0.17059326
0.16876221
0.16601562
0.16265869
0.15899658
0.15472412
0.14984131
0.1449585
0.13977051
0.1348877
0.13000488
0.12573242
0.12237549
0.11993408
0.11871338
0.11810303
0.11810303
0.1184082
0.11962891
0.12145996
0.12420654
0.1272583
0.13092041
0.1348877
0.13916016
0.14404297
0.14892578
0.15441895
0.15991211
0.16479492
0.16937256
0.17333984
0.17669678
0.17944336
0.18249512
0.1852417
0.18737793
0.18859863
0.18890381
0.18829346
0.18676758
0.18493652
0.18280029
0.18096924
0.17944336
0.17822266
0.17730713
0.1763916
0.17578125
0.1751709
0.1751709
0.17547607
0.17608643
0.17700195
0.17791748
0.17913818
0.18066406
0.18249512
0.18463135
0.18737793
0.19042969
0.19317627
0.19561768
0.19744873
0.19897461
0.19989014
0.20080566
0.20202637
0.20355225
0.20568848
0.20812988
0.21087646
0.2130127
0.21514893
0.21728516
0.21911621
0.22094727
0.22247314
0.2243042
0.22613525
0.22766113
0.22888184
0.22888184
0.22827148
0.22705078
0.22460938
0.22216797
0.21942139
0.21697998
0.21514893
0.21453857
0.21514893
0.2166748
0.21911621
0.22125244
0.22338867
0.22521973
0.22705078
0.22918701
0.23223877
0.2355957
0.23895264
0.24200439
0.24475098
0.24719238
0.24871826
0.24993896
0.25024414
0.25024414
0.24963379
0.24871826
0.24749756
0.24597168
0.2444458
0.24353027
0.24230957
0.24108887
0.23986816
0.23834229
0.23681641
0.23498535
0.23284912
0.23040771
0.22766113
0.2243042
0.22033691
0.21636963
0.21331787
0.21057129
0.20874023
0.206604
0.20446777
0.20202637
0.19958496
0.19714355
0.19470215
0.19256592
0.19042969
0.18920898
0.18798828
0.18676758
0.1852417
0.18341064
0.18066406
0.17669678
0.17181396
0.16662598
0.16143799
0.15686035
0.15258789
0.14831543
0.14404297
0.13946533
0.1348877
0.12969971
0.12451172
0.11932373
0.11444092
0.11016846
0.10681152
0.10406494
0.10192871
0.10040283
0.099182129
0.097961426
0.096740723
0.095825195
0.095214844
0.094909668
0.094909668
0.094909668
0.094909668
0.09552002
0.095825195
0.096130371
0.096130371
0.095825195
0.095214844
0.094299316
0.093078613
0.091552734
0.089416504
0.086975098
0.084228516
0.081176758
0.078125
0.075073242
0.07232666
0.069885254
0.068359375
0.067443848
0.066833496
0.066223145
0.065612793
0.065002441
0.06439209
0.064697266
0.065917969
0.068054199
0.070495605
0.073242188
0.075378418
0.076599121
0.076599121
0.075073242
0.07232666
0.069274902
0.066223145
0.063781738
0.061340332
0.059204102
0.056762695
0.054321289
0.051879883
0.049743652
0.047912598
0.04699707
0.04699707
0.047912598
0.049438477
0.051574707
0.054016113
0.056152344
0.05859375
0.060424805
0.062255859
0.064086914
0.065612793
0.06652832
0.067138672
0.066833496
0.065917969
0.06439209
0.063171387
0.061950684
0.061035156
0.06072998
0.06072998
0.061340332
0.062255859
0.063781738
0.065002441
0.06652832
0.068054199
0.069274902
0.07019043
0.070800781
0.071105957
0.071105957
0.07019043
0.068969727
0.067138672
0.065307617
0.063476562
0.061950684
0.060119629
0.057983398
0.055236816
0.052185059
0.049438477
0.047302246
0.046081543
0.046386719
0.047607422
0.049438477
0.051269531
0.053405762
0.055541992
0.057373047
0.059509277
0.061645508
0.063781738
0.065917969
0.067749023
0.069580078
0.070800781
0.071411133
0.070800781
0.069885254
0.068664551
0.067749023
0.067138672
0.067443848
0.067443848
0.06652832
0.065002441
0.062866211
0.06072998
0.058898926
0.057678223
0.057373047
0.057373047
0.057678223
0.057678223
0.057678223
0.057678223
0.057373047
0.057067871
0.057373047
0.057678223
0.057983398
0.058288574
0.05859375
0.058898926
0.058898926
0.058898926
0.059204102
0.059509277
0.059814453
0.060119629
0.060119629
0.060119629
0.059509277
0.058898926
0.057678223
0.05645752
0.054931641
0.053405762
0.052185059
0.051269531
0.050964355
0.051269531
0.052185059
0.054016113
0.055847168
0.058288574
0.06072998
0.063476562
0.06652832
0.069580078
0.072631836
0.075683594
0.078735352
0.081176758
0.083618164
0.085449219
0.087280273
0.089111328
0.090332031
0.091247559
0.091247559
0.090942383
0.090332031
0.090332031
0.090637207
0.090942383
0.091247559
0.091552734
0.092468262
0.093688965
0.095214844
0.097045898
0.098571777
0.10009766
0.10162354
0.10284424
0.10437012
0.10559082
0.10650635
0.1071167
0.10803223
0.10864258
0.10894775
0.10894775
0.1083374
0.10772705
0.10681152
0.105896
0.10498047
0.10375977
0.10223389
0.10070801
0.098876953
0.09765625
0.096435547
0.095825195
0.095214844
0.095214844
0.095214844
0.095825195
0.096435547
0.097045898
0.097045898
0.096740723
0.096130371
0.095214844
0.093994141
0.092773438
0.091247559
0.089111328
0.086364746
0.082702637
0.078735352
0.074157715
0.068969727
0.063171387
0.057373047
0.051879883
0.046386719
0.041809082
0.037841797
0.034179688
0.031433105
0.029296875
0.028076172
0.02746582
0.027160645
0.02746582
0.027770996
0.028381348
0.028991699
0.030212402
0.031738281
0.03326416
0.035095215
0.03692627
0.038146973
0.039367676
0.040283203
0.040893555
0.041809082
0.043029785
0.043945312
0.044555664
0.04486084
0.045471191
0.046386719
0.047912598
0.049133301
0.050354004
0.050964355
0.050964355
0.050964355
0.050354004
0.049438477
0.048217773
0.046386719
0.044250488
0.041809082
0.039367676
0.036315918
0.033569336
0.030517578
0.02746582
0.024414062
0.02166748
0.018920898
0.016784668
0.015258789
0.014343262
0.014343262
0.014648438
0.015258789
0.016479492
0.018005371
0.019836426
0.02166748
0.023803711
0.025634766
0.027160645
0.028381348
0.029602051
0.030822754
0.032043457
0.032958984
0.033569336
0.033874512
0.033569336
0.032958984
0.031738281
0.030517578
0.028686523
0.02746582
0.026245117
0.025634766
0.025634766
0.025939941
0.026550293
0.026855469
0.027160645
0.02746582
0.028076172
0.028076172
0.02746582
0.026550293
0.02532959
0.023803711
0.02166748
0.019226074
0.016174316
0.013122559
0.0094604492
0.0057983398
0.0021362305
-0.0012207031
-0.0045776367
-0.0079345703
-0.010681152
-0.011901855
-0.012207031
-0.010681152
-0.0079345703
-0.0033569336
0.0033569336
0.011901855
0.02166748
0.03326416
0.046081543
0.061035156
0.077514648
0.09552002
0.11535645
0.13671875
0.16021729
0.18585205
0.2130127
0.24108887
0.27008057
0.29876709
0.32623291
0.35125732
0.37261963
0.3894043
0.40100098
0.40679932
0.40618896
0.39916992
0.38543701
0.36529541
0.33874512
0.30609131
0.26794434
0.2255249
0.17944336
0.13122559
0.082092285
0.03326416
-0.013427734
-0.056762695
-0.096130371
-0.13031006
-0.15869141
-0.18066406
-0.19683838
-0.206604
-0.21118164
-0.21087646
-0.20629883
-0.19836426
-0.18798828
-0.17547607
-0.16113281
-0.1461792
-0.13092041
-0.11535645
-0.10009766
-0.084838867
-0.07019043
-0.05645752
-0.043640137
-0.032348633
-0.021972656
-0.012817383
-0.0039672852
0.0045776367
0.012817383
0.021057129
0.028686523
0.036010742
0.043334961
0.05065918
0.057983398
0.065002441
0.071105957
0.07598877
0.079650879
0.082397461
0.084533691
0.086364746
0.088195801
0.08972168
0.090637207
0.091552734
0.091247559
0.090026855
0.087890625
0.085144043
0.081787109
0.078430176
0.075378418
0.07232666
0.069885254
0.067443848
0.065307617
0.063781738
0.062561035
0.061950684
0.061035156
0.060119629
0.059204102
0.05859375
0.058288574
0.05859375
0.05859375
0.058898926
0.059509277
0.060119629
0.061035156
0.062255859
0.063476562
0.064697266
0.065612793
0.065917969
0.065917969
0.065612793
0.065307617
0.065307617
0.065002441
0.06439209
0.063476562
0.062561035
0.061645508
0.06072998
0.060119629
0.059204102
0.057678223
0.056152344
0.054321289
0.05279541
0.051269531
0.050964355
0.051574707
0.053100586
0.054931641
0.057067871
0.058898926
0.060424805
0.062255859
0.06439209
0.067443848
0.070495605
0.074157715
0.077514648
0.080871582
0.08392334
0.086975098
0.089416504
0.091247559
0.092468262
0.092773438
0.092773438
0.092773438
0.092468262
0.091552734
0.090637207
0.089416504
0.088195801
0.086975098
0.085449219
0.08392334
0.082397461
0.081176758
0.08026123
0.079650879
0.079040527
0.078430176
0.078125
0.077514648
0.077514648
0.077819824
0.078735352
0.079956055
0.081481934
0.082702637
0.083618164
0.084228516
0.085144043
0.08605957
0.086975098
0.087890625
0.088500977
0.089111328
0.090026855
0.090637207
0.091552734
0.092468262
0.092468262
0.092163086
0.091552734
0.090942383
0.090332031
0.089111328
0.086975098
0.08392334
0.080566406
0.077209473
0.073852539
0.071411133
0.069580078
0.068359375
0.067443848
0.067443848
0.067443848
0.068054199
0.069274902
0.070800781
0.073242188
0.076293945
0.079650879
0.083618164
0.088195801
0.093078613
0.098266602
0.10284424
0.10681152
0.11047363
0.11291504
0.11505127
0.11657715
0.11810303
0.11962891
0.12115479
0.12268066
0.12451172
0.1260376
0.12695312
0.12756348
0.12756348
0.1272583
0.12695312
0.12695312
0.1272583
0.1272583
0.12695312
0.1260376
0.12451172
0.12237549
0.12023926
0.11810303
0.11627197
0.11474609
0.11352539
0.11199951
0.11047363
0.10955811
0.10925293
0.10986328
0.11138916
0.11352539
0.11657715
0.12023926
0.12451172
0.12939453
0.13519287
0.14068604
0.1461792
0.15106201
0.15594482
0.16052246
0.16479492
0.16845703
0.17089844
0.17272949
0.1739502
0.17425537
0.17425537
0.17364502
0.17303467
0.17150879
0.16967773
0.1675415
0.16571045
0.16387939
0.16265869
0.16174316
0.16052246
0.15960693
0.15869141
0.15808105
0.15808105
0.15838623
0.15930176
0.16052246
0.16204834
0.16326904
0.16448975
0.16479492
0.16479492
0.16448975
0.16357422
0.16265869
0.16174316
0.16082764
0.16052246
0.15991211
0.15899658
0.1574707
0.15533447
0.15289307
0.15045166
0.14770508
0.14465332
0.14160156
0.1385498
0.13519287
0.13214111
0.12908936
0.12634277
0.12359619
0.12084961
0.11749268
0.11383057
0.10986328
0.10559082
0.10101318
0.096740723
0.092163086
0.087280273
0.082397461
0.077209473
0.071716309
0.066223145
0.061035156
0.055541992
0.050354004
0.045471191
0.040893555
0.036621094
0.033569336
0.031738281
0.03112793
0.031738281
0.03326416
0.035705566
0.038146973
0.040893555
0.043029785
0.04486084
0.045471191
0.04486084
0.043945312
0.042419434
0.040588379
0.038452148
0.036315918
0.033569336
0.029907227
0.025939941
0.021362305
0.016784668
0.012512207
0.0085449219
0.0054931641
0.0033569336
0.0024414062
0.0021362305
0.0030517578
0.0042724609
0.0057983398
0.0073242188
0.0085449219
0.010070801
0.01159668
0.012817383
0.01373291
0.014038086
0.014038086
0.013427734
0.012207031
0.010986328
0.0088500977
0.0067138672
0.0048828125
0.0030517578
0.0012207031
-0.00030517578
-0.0018310547
-0.0036621094
-0.0054931641
-0.007019043
-0.0079345703
-0.0085449219
-0.0088500977
-0.0094604492
-0.010070801
-0.010681152
-0.010986328
-0.010681152
-0.009765625
-0.0085449219
-0.007019043
-0.0057983398
-0.0042724609
-0.0033569336
-0.0030517578
-0.002746582
-0.0021362305
-0.00061035156
0.0012207031
0.0036621094
0.0057983398
0.0082397461
0.010986328
0.013427734
0.016174316
0.018920898
0.02166748
0.024108887
0.025939941
0.027160645
0.02746582
0.027770996
0.027770996
0.027770996
0.027770996
0.02746582
0.026245117
0.024414062
0.021972656
0.019226074
0.017089844
0.015258789
0.01373291
0.012817383
0.012512207
0.012512207
0.012817383
0.013122559
0.01373291
0.014953613
0.016479492
0.018005371
0.019226074
0.019836426
0.01953125
0.018920898
0.017700195
0.016174316
0.014343262
0.012817383
0.010986328
0.0094604492
0.0079345703
0.0067138672
0.0054931641
0.0048828125
0.0042724609
0.0042724609
0.0048828125
0.0057983398
0.007019043
0.0085449219
0.010070801
0.011291504
0.012512207
0.013122559
0.014038086
0.015258789
0.016784668
0.018310547
0.01953125
0.020751953
0.021057129
0.020446777
0.019226074
0.01739502
0.015869141
0.014648438
0.014038086
0.014038086
0.014648438
0.015258789
0.015563965
0.015258789
0.014953613
0.014648438
0.014038086
0.013122559
0.012512207
0.012207031
0.012207031
0.012207031
0.011901855
0.01159668
0.010681152
0.010070801
0.0094604492
0.0091552734
0.0094604492
0.009765625
0.010070801
0.010375977
0.010986328
0.011901855
0.013122559
0.015258789
0.017700195
0.020751953
0.023803711
0.026550293
0.029296875
0.031433105
0.032958984
0.033874512
0.034790039
0.035095215
0.035400391
0.035705566
0.036010742
0.036010742
0.036010742
0.036010742
0.036010742
0.036010742
0.035705566
0.036010742
0.036621094
0.037536621
0.038452148
0.039367676
0.040283203
0.04119873
0.041809082
0.042114258
0.042114258
0.041809082
0.04119873
0.040588379
0.040283203
0.039978027
0.040283203
0.039978027
0.039672852
0.0390625
0.038757324
0.038757324
0.039367676
0.040283203
0.041503906
0.043334961
0.045471191
0.047912598
0.050048828
0.051879883
0.053710938
0.055236816
0.057067871
0.059509277
0.062255859
0.065002441
0.067443848
0.07019043
0.072631836
0.074768066
0.077209473
0.079650879
0.081787109
0.084228516
0.085754395
0.087280273
0.087890625
0.087585449
0.086364746
0.084533691
0.081787109
0.078430176
0.075073242
0.071411133
0.067749023
0.063476562
0.05859375
0.053100586
0.04699707
0.040893555
0.035400391
0.030822754
0.026855469
0.023803711
0.021362305
0.019226074
0.01739502
0.015563965
0.01373291
0.012207031
0.010986328
0.010070801
0.0094604492
0.0091552734
0.0091552734
0.0094604492
0.009765625
0.010375977
0.010986328
0.012207031
0.013122559
0.014648438
0.016479492
0.018005371
0.01953125
0.021057129
0.022277832
0.023803711
0.024719238
0.025024414
0.024719238
0.023193359
0.021057129
0.018310547
0.015258789
0.012207031
0.0094604492
0.0064086914
0.0033569336
0
-0.0036621094
-0.0067138672
-0.0085449219
-0.0091552734
-0.0082397461
-0.007019043
-0.0054931641
-0.0036621094
-0.0015258789
0
0.0018310547
0.0033569336
0.0048828125
0.0061035156
0.0073242188
0.0085449219
0.009765625
0.010375977
0.010681152
0.010681152
0.0094604492
0.0076293945
0.0054931641
0.0036621094
0.002746582
0.002746582
0.0036621094
0.0048828125
0.0064086914
0.0079345703
0.0091552734
0.010070801
0.010681152
0.010986328
0.010986328
0.010681152
0.009765625
0.0088500977
0.0079345703
0.0067138672
0.0054931641
0.0039672852
0.0018310547
-0.00091552734
-0.0036621094
-0.0064086914
-0.0091552734
-0.01159668
-0.01373291
-0.015258789
-0.016174316
-0.017089844
-0.018615723
-0.020446777
-0.022277832
-0.023193359
-0.023498535
-0.022888184
-0.022277832
-0.021057129
-0.019836426
-0.018615723
-0.017700195
-0.017089844
-0.01739502
-0.018005371
-0.018920898
-0.020446777
-0.021972656
-0.023193359
-0.024108887
-0.025024414
-0.025634766
-0.026550293
-0.027160645
-0.027770996
-0.028076172
-0.02746582
-0.025634766
-0.02166748
-0.015869141
-0.0076293945
0.0033569336
0.017089844
0.033874512
0.054016113
0.076599121
0.10223389
0.13031006
0.15991211
0.19104004
0.22247314
0.25360107
0.28381348
0.31219482
0.33721924
0.35827637
0.37414551
0.38360596
0.38604736
0.38146973
0.36956787
0.35125732
0.32623291
0.29541016
0.25817871
0.21606445
0.16967773
0.11993408
0.068359375
0.016174316
-0.034484863
-0.082397461
-0.1260376
-0.16479492
-0.19775391
-0.22521973
-0.24688721
-0.26306152
-0.27374268
-0.27893066
-0.27954102
-0.27557373
-0.26794434
-0.25665283
-0.24261475
-0.22583008
-0.20782471
-0.18890381
-0.16998291
-0.15167236
-0.13397217
-0.11749268
-0.10192871
-0.087585449
-0.074157715
-0.061645508
-0.049743652
-0.0390625
-0.029907227
-0.021972656
-0.014953613
-0.0082397461
-0.0021362305
0.0039672852
0.009765625
0.014953613
0.01953125
0.023803711
0.026855469
0.029602051
0.031738281
0.03326416
0.034790039
0.036315918
0.037841797
0.038757324
0.039367676
0.039672852
0.0390625
0.038146973
0.036315918
0.034484863
0.032653809
0.03112793
0.030517578
0.029602051
0.028991699
0.027770996
0.025939941
0.023803711
0.021972656
0.020446777
0.019226074
0.018310547
0.017700195
0.01739502
0.017089844
0.016174316
0.014953613
0.013427734
0.01159668
0.010070801
0.0088500977
0.0079345703
0.0076293945
0.0079345703
0.0088500977
0.010070801
0.011291504
0.012512207
0.013427734
0.014648438
0.015258789
0.015869141
0.016479492
0.01739502
0.018005371
0.018615723
0.018615723
0.018005371
0.01739502
0.016479492
0.015563965
0.014648438
0.01373291
0.012817383
0.011901855
0.011291504
0.010986328
0.010681152
0.010681152
0.010681152
0.011291504
0.012512207
0.014038086
0.016479492
0.01953125
0.022888184
0.025939941
0.028686523
0.030822754
0.032348633
0.033569336
0.033569336
0.03326416
0.032043457
0.030517578
0.028076172
0.02532959
0.022888184
0.020446777
0.018310547
0.016479492
0.014648438
0.012817383
0.010986328
0.0094604492
0.0085449219
0.0085449219
0.010375977
0.013427734
0.017700195
0.022277832
0.02746582
0.032958984
0.037841797
0.042724609
0.04699707
0.050964355
0.054016113
0.05645752
0.058288574
0.059509277
0.060424805
0.06072998
0.061035156
0.061035156
0.060119629
0.05859375
0.056762695
0.054321289
0.051574707
0.048828125
0.046081543
0.043334961
0.04119873
0.039367676
0.037841797
0.03692627
0.036315918
0.036010742
0.036010742
0.035705566
0.035400391
0.035095215
0.034484863
0.033874512
0.033569336
0.033569336
0.033874512
0.034790039
0.035705566
0.037231445
0.039367676
0.041809082
0.044555664
0.047607422
0.050964355
0.054626465
0.058898926
0.063171387
0.067443848
0.071411133
0.075378418
0.078735352
0.081481934
0.083007812
0.083618164
0.083007812
0.081481934
0.079650879
0.077209473
0.074768066
0.07232666
0.069885254
0.067749023
0.065917969
0.06439209
0.063476562
0.063476562
0.06439209
0.066833496
0.070495605
0.075073242
0.08026123
0.085449219
0.090332031
0.094299316
0.096740723
0.097961426
0.098266602
0.097351074
0.095214844
0.092468262
0.088500977
0.083618164
0.078125
0.072021484
0.06652832
0.061340332
0.057067871
0.053710938
0.051574707
0.050048828
0.050048828
0.051269531
0.054016113
0.05859375
0.065002441
0.072631836
0.081176758
0.08972168
0.097961426
0.10528564
0.11199951
0.11779785
0.12268066
0.12695312
0.13061523
0.13366699
0.13580322
0.1373291
0.13824463
0.13763428
0.13641357
0.1348877
0.13275146
0.13092041
0.12878418
0.12695312
0.12512207
0.12298584
0.12054443
0.11779785
0.11474609
0.11199951
0.10925293
0.10681152
0.10406494
0.10101318
0.09765625
0.093383789
0.088500977
0.083007812
0.077514648
0.071411133
0.065307617
0.058898926
0.05279541
0.046691895
0.041503906
0.03692627
0.033874512
0.031738281
0.030517578
0.029907227
0.029602051
0.029296875
0.029602051
0.029296875
0.028381348
0.026855469
0.024719238
0.02166748
0.018310547
0.014648438
0.010986328
0.0073242188
0.0030517578
-0.0024414062
-0.0091552734
-0.016784668
-0.024719238
-0.032958984
-0.040588379
-0.04699707
-0.051879883
-0.055236816
-0.057373047
-0.05859375
-0.05859375
-0.058898926
-0.059509277
-0.06072998
-0.063171387
-0.066223145
-0.068664551
-0.068664551
-0.065307617
-0.05859375
-0.048217773
-0.033569336
-0.014038086
0.010986328
0.042724609
0.08026123
0.12268066
0.16906738
0.21759033
0.26611328
0.31311035
0.35583496
0.39245605
0.42205811
0.44433594
0.45837402
0.46447754
0.46203613
0.45074463
0.43029785
0.40100098
0.36376953
0.31890869
0.26794434
0.21240234
0.15441895
0.097045898
0.043029785
-0.0045776367
-0.043334961
-0.073852539
-0.09552002
-0.10986328
-0.11749268
-0.11901855
-0.11566162
-0.1083374
-0.097045898
-0.082702637
-0.066223145
-0.049133301
-0.03326416
-0.01953125
-0.0091552734
-0.0015258789
0.002746582
0.0030517578
-0.0015258789
-0.010375977
-0.023803711
-0.040893555
-0.059814453
-0.08026123
-0.10040283
-0.11932373
-0.1361084
-0.14984131
-0.16021729
-0.16662598
-0.16937256
-0.16845703
-0.16387939
-0.15625
-0.14556885
-0.13305664
-0.11871338
-0.10253906
-0.085754395
-0.068359375
-0.050964355
-0.034790039
-0.019836426
-0.0064086914
0.0054931641
0.015563965
0.024414062
0.031738281
0.037231445
0.040588379
0.04119873
0.038757324
0.032348633
0.022277832
0.0094604492
-0.0057983398
-0.022277832
-0.040283203
-0.058898926
-0.078430176
-0.098571777
-0.1184082
-0.1373291
-0.15472412
-0.16906738
-0.18005371
-0.1864624
-0.18798828
-0.18493652
-0.17730713
-0.16601562
-0.15075684
-0.13183594
-0.10986328
-0.085449219
-0.060119629
-0.035095215
-0.011291504
0.010375977
0.029602051
0.046691895
0.061645508
0.073547363
0.082702637
0.086364746
0.083618164
0.07598877
0.065917969
0.057373047
0.051879883
0.050354004
0.052490234
0.056152344
0.059204102
0.06072998
0.060119629
0.057678223
0.05279541
0.045776367
0.038146973
0.029602051
0.021057129
0.011901855
0.0015258789
-0.009765625
-0.021972656
-0.034790039
-0.04699707
-0.05859375
-0.068969727
-0.077819824
-0.084838867
-0.089416504
-0.091552734
-0.090942383
-0.087890625
-0.081787109
-0.074157715
-0.065002441
-0.055847168
-0.04699707
-0.039978027
-0.035095215
-0.032348633
-0.032043457
-0.033874512
-0.037536621
-0.041809082
-0.04699707
-0.051879883
-0.056152344
-0.059509277
-0.062561035
-0.064697266
-0.065917969
-0.066833496
-0.067443848
-0.068664551
-0.07019043
-0.07232666
-0.074768066
-0.078125
-0.082092285
-0.087280273
-0.094604492
-0.10314941
-0.11291504
-0.12329102
-0.13366699
-0.14343262
-0.15228271
-0.16082764
-0.16906738
-0.17700195
-0.18463135
-0.19104004
-0.1965332
-0.20080566
-0.20355225
-0.20507812
-0.2041626
-0.20080566
-0.19470215
-0.18615723
-0.17578125
-0.16296387
-0.14709473
-0.12786865
-0.105896
-0.081787109
-0.056152344
-0.030517578
-0.0057983398
0.01739502
0.038452148
0.056762695
0.071716309
0.083312988
0.091552734
0.09765625
0.10162354
0.10437012
0.10620117
0.1071167
0.10742188
0.10742188
0.10772705
0.1083374
0.11016846
0.11383057
0.11962891
0.12695312
0.13519287
0.14373779
0.15228271
0.16021729
0.16815186
0.17578125
0.18280029
0.18859863
0.19256592
0.19348145
0.19134521
0.18615723
0.17822266
0.1675415
0.15411377
0.13885498
0.12176514
0.10467529
0.087585449
0.071411133
0.05645752
0.042724609
0.030212402
0.018615723
0.0085449219
0.00061035156
-0.0036621094
-0.0024414062
0.0061035156
0.021057129
0.040893555
0.063171387
0.085449219
0.10559082
0.12329102
0.1385498
0.15319824
0.16723633
0.18096924
0.19348145
0.20385742
0.21057129
0.21331787
0.21118164
0.20446777
0.19348145
0.17944336
0.16357422
0.1473999
0.13214111
0.11932373
0.10925293
0.10223389
0.098266602
0.096740723
0.097045898
0.099182129
0.10284424
0.10772705
0.11413574
0.12176514
0.13031006
0.14038086
0.15167236
0.16418457
0.17791748
0.19195557
0.2053833
0.21789551
0.22827148
0.2355957
0.23834229
0.23529053
0.22613525
0.21118164
0.19165039
0.16845703
0.14282227
0.11627197
0.08972168
0.064086914
0.039367676
0.015869141
-0.0061035156
-0.026550293
-0.044555664
-0.059509277
-0.070800781
-0.077819824
-0.080566406
-0.079345703
-0.075378418
-0.068969727
-0.061645508
-0.054626465
-0.048828125
-0.045166016
-0.043945312
-0.044555664
-0.047302246
-0.051574707
-0.057067871
-0.063476562
-0.070495605
-0.077819824
-0.084533691
-0.089111328
-0.091247559
-0.090942383
-0.087890625
-0.082702637
-0.075378418
-0.066223145
-0.055541992
-0.043334961
-0.029907227
-0.016174316
-0.0021362305
0.010986328
0.023193359
0.033569336
0.042114258
0.048522949
0.052185059
0.054016113
0.054016113
0.052185059
0.048828125
0.043640137
0.037841797
0.03112793
0.024108887
0.017089844
0.010070801
0.0030517578
-0.0033569336
-0.0091552734
-0.014038086
-0.01739502
-0.01953125
-0.019836426
-0.018615723
-0.016479492
-0.013427734
-0.009765625
-0.0054931641
-0.00091552734
0.0036621094
0.0079345703
0.010986328
0.012207031
0.01159668
0.0094604492
0.0057983398
0.0012207031
-0.0039672852
-0.010375977
-0.017700195
-0.025634766
-0.034484863
-0.043945312
-0.054016113
-0.06439209
-0.073852539
-0.082702637
-0.090026855
-0.09552002
-0.099487305
-0.10192871
-0.10223389
-0.10040283
-0.095825195
-0.088806152
-0.079040527
-0.066223145
-0.050964355
-0.034179688
-0.015869141
0.0036621094
0.025024414
0.048828125
0.07598877
0.10559082
0.1373291
0.16906738
0.20050049
0.23010254
0.25695801
0.28045654
0.29937744
0.3137207
0.32226562
0.32470703
0.32012939
0.30853271
0.28991699
0.26428223
0.23223877
0.19470215
0.15289307
0.10742188
0.059814453
0.011291504
-0.037231445
-0.084533691
-0.12878418
-0.16876221
-0.20324707
-0.23132324
-0.25177002
-0.26519775
-0.27191162
-0.27252197
-0.26763916
-0.25817871
-0.24536133
-0.22949219
-0.21118164
-0.19104004
-0.16937256
-0.14678955
-0.12390137
-0.10162354
-0.08026123
-0.060119629
-0.040893555
-0.023193359
-0.0067138672
0.0085449219
0.022583008
0.035705566
0.048217773
0.059814453
0.071105957
0.082092285
0.092163086
0.10192871
0.11108398
0.11962891
0.1272583
0.13458252
0.14190674
0.14831543
0.15441895
0.15960693
0.16387939
0.16784668
0.17089844
0.17303467
0.1739502
0.17364502
0.17211914
0.16998291
0.16723633
0.16479492
0.16235352
0.15960693
0.15686035
0.15380859
0.15075684
0.1473999
0.14343262
0.13885498
0.13366699
0.12786865
0.12176514
0.11566162
0.10955811
0.10345459
0.097351074
0.091552734
0.08605957
0.080871582
0.07598877
0.071716309
0.067749023
0.063781738
0.060119629
0.056762695
0.053710938
0.05065918
0.048828125
0.047607422
0.04699707
0.046386719
0.045776367
0.043945312
0.040893555
0.036621094
0.031738281
0.025939941
0.019836426
0.01373291
0.0076293945
0.0018310547
-0.0039672852
-0.0094604492
-0.014953613
-0.019836426
-0.024414062
-0.028381348
-0.031433105
-0.033569336
-0.034790039
-0.034484863
-0.03326416
-0.030822754
-0.028076172
-0.024719238
-0.021362305
-0.018005371
-0.014953613
-0.012207031
-0.009765625
-0.0076293945
-0.0057983398
-0.0042724609
-0.0033569336
-0.0030517578
-0.0033569336
-0.0039672852
-0.0048828125
-0.0061035156
-0.007019043
-0.0082397461
-0.0088500977
-0.0088500977
-0.0082397461
-0.0067138672
-0.0045776367
-0.0015258789
0.0018310547
0.0054931641
0.0088500977
0.012512207
0.016784668
0.02166748
0.027160645
0.032348633
0.03692627
0.040283203
0.042114258
0.043334961
0.043640137
0.044250488
0.044250488
0.044555664
0.044555664
0.044250488
0.044250488
0.044250488
0.044250488
0.044555664
0.045471191
0.04699707
0.049438477
0.052490234
0.056152344
0.059814453
0.063476562
0.066833496
0.07019043
0.073547363
0.076904297
0.080566406
0.084533691
0.088500977
0.092773438
0.097045898
0.10101318
0.10498047
0.10894775
0.11230469
0.11566162
0.11901855
0.12237549
0.1260376
0.12969971
0.13275146
0.13549805
0.1373291
0.13885498
0.13946533
0.13977051
0.14007568
0.13977051
0.13977051
0.13977051
0.14007568
0.14007568
0.14038086
0.14038086
0.14007568
0.14007568
0.13977051
0.14007568
0.14099121
0.14251709
0.14404297
0.14587402
0.14801025
0.15014648
0.15258789
0.15533447
0.15899658
0.16387939
0.16937256
0.1751709
0.18127441
0.18737793
0.19317627
0.19866943
0.20446777
0.20996094
0.21484375
0.21972656
0.22369385
0.22644043
0.22735596
0.22644043
0.22338867
0.21881104
0.2130127
0.206604
0.19958496
0.19287109
0.18585205
0.17883301
0.17181396
0.1651001
0.15869141
0.15289307
0.14831543
0.1449585
0.14282227
0.14160156
0.14129639
0.14160156
0.14251709
0.14373779
0.1449585
0.14648438
0.14770508
0.14892578
0.14984131
0.14984131
0.14953613
0.14862061
0.14801025
0.1473999
0.14678955
0.1461792
0.14587402
0.1461792
0.14709473
0.14862061
0.15014648
0.15075684
0.15106201
0.15045166
0.14892578
0.14648438
0.14343262
0.13977051
0.1361084
0.13183594
0.1272583
0.12176514
0.11505127
0.1071167
0.097961426
0.088500977
0.078430176
0.068969727
0.059814453
0.051574707
0.043334961
0.035705566
0.028076172
0.021057129
0.014038086
0.0076293945
0.0012207031
-0.0045776367
-0.010375977
-0.016174316
-0.022583008
-0.029296875
-0.03692627
-0.04486084
-0.05279541
-0.059814453
-0.065917969
-0.071105957
-0.075378418
-0.078735352
-0.081787109
-0.084228516
-0.08605957
-0.087585449
-0.088806152
-0.090026855
-0.091247559
-0.092468262
-0.093078613
-0.093994141
-0.094604492
-0.09552002
-0.097351074
-0.09979248
-0.10314941
-0.1071167
-0.11169434
-0.11749268
-0.12390137
-0.13031006
-0.13641357
-0.14282227
-0.14923096
-0.15594482
-0.16265869
-0.16906738
-0.1751709
-0.18066406
-0.18615723
-0.19134521
-0.19592285
-0.19989014
-0.20202637
-0.20294189
-0.20355225
-0.20385742
-0.2041626
-0.2041626
-0.20446777
-0.20446777
-0.2041626
-0.20385742
-0.20324707
-0.20263672
-0.20172119
-0.20050049
-0.19866943
-0.19683838
-0.19439697
-0.19226074
-0.19042969
-0.18890381
-0.18737793
-0.18615723
-0.18493652
-0.184021
-0.18280029
-0.18096924
-0.17852783
-0.17578125
-0.17303467
-0.17059326
-0.16876221
-0.1675415
-0.16693115
-0.1663208
-0.16601562
-0.1651001
-0.16387939
-0.16204834
-0.15960693
-0.15716553
-0.15441895
-0.15197754
-0.14923096
-0.14709473
-0.14526367
-0.14312744
-0.14099121
-0.13946533
-0.1385498
-0.1385498
-0.13885498
-0.14007568
-0.14099121
-0.14190674
-0.14251709
-0.14251709
-0.14251709
-0.14190674
-0.14160156
-0.14129639
-0.14068604
-0.13977051
-0.13824463
-0.13641357
-0.13366699
-0.13092041
-0.12817383
-0.12542725
-0.12298584
-0.12084961
-0.11962891
-0.11901855
-0.11901855
-0.11962891
-0.12054443
-0.12145996
-0.12237549
-0.12298584
-0.12390137
-0.12420654
-0.12420654
-0.12359619
-0.12268066
-0.12084961
-0.11871338
-0.11566162
-0.11199951
-0.10742188
-0.10192871
-0.09552002
-0.088500977
-0.080871582
-0.073852539
-0.067138672
-0.061340332
-0.056762695
-0.05279541
-0.049133301
-0.046081543
-0.043334961
-0.04119873
-0.0390625
-0.037231445
-0.035705566
-0.034790039
-0.034790039
-0.036010742
-0.037841797
-0.040283203
-0.041809082
-0.042114258
-0.04119873
-0.038757324
-0.036010742
-0.03326416
-0.031433105
-0.029602051
-0.028076172
-0.025939941
-0.023193359
-0.020446777
-0.01739502
-0.014953613
-0.013122559
-0.01159668
-0.010681152
-0.010375977
-0.010681152
-0.011291504
-0.012512207
-0.014953613
-0.018310547
-0.022583008
-0.02746582
-0.032043457
-0.036010742
-0.0390625
-0.041503906
-0.043640137
-0.045471191
-0.047302246
-0.049438477
-0.050964355
-0.052490234
-0.053100586
-0.053405762
-0.053405762
-0.053405762
-0.053405762
-0.054016113
-0.055236816
-0.057067871
-0.059509277
-0.062255859
-0.065612793
-0.068664551
-0.071411133
-0.073852539
-0.075683594
-0.076904297
-0.077514648
-0.077819824
-0.077514648
-0.076904297
-0.07598877
-0.074768066
-0.073852539
-0.072937012
-0.072021484
-0.072021484
-0.073242188
-0.07598877
-0.079650879
-0.084228516
-0.08972168
-0.095214844
-0.10162354
-0.10803223
-0.11505127
-0.12207031
-0.12969971
-0.13763428
-0.14587402
-0.15411377
-0.16143799
-0.1675415
-0.17303467
-0.17852783
-0.18341064
-0.18829346
-0.19287109
-0.19683838
-0.20050049
-0.2041626
-0.20782471
-0.21179199
-0.2154541
-0.21881104
-0.22125244
-0.22277832
-0.2230835
-0.22247314
-0.22125244
-0.21911621
-0.21697998
-0.2142334
-0.21087646
-0.20721436
-0.20294189
-0.19805908
-0.19256592
-0.18707275
-0.18127441
-0.17547607
-0.16998291
-0.16448975
-0.15930176
-0.15411377
-0.14892578
-0.14343262
-0.1385498
-0.13366699
-0.12939453
-0.12573242
-0.12237549
-0.11901855
-0.11535645
-0.11169434
-0.10864258
-0.10620117
-0.10437012
-0.10314941
-0.10253906
-0.10223389
-0.10223389
-0.10253906
-0.10253906
-0.10253906
-0.10253906
-0.10314941
-0.10406494
-0.10528564
-0.10620117
-0.10681152
-0.105896
-0.10406494
-0.10131836
-0.098571777
-0.096130371
-0.093994141
-0.092163086
-0.090332031
-0.088806152
-0.086364746
-0.083007812
-0.078735352
-0.073547363
-0.068359375
-0.063781738
-0.060424805
-0.05859375
-0.057983398
-0.057983398
-0.05859375
-0.059509277
-0.06072998
-0.061950684
-0.06439209
-0.067443848
-0.071411133
-0.075683594
-0.079956055
-0.084533691
-0.088806152
-0.093383789
-0.09765625
-0.10131836
-0.10406494
-0.10559082
-0.10620117
-0.105896
-0.10528564
-0.10406494
-0.10253906
-0.10070801
-0.098876953
-0.097351074
-0.096435547
-0.09552002
-0.094299316
-0.093383789
-0.092468262
-0.09185791
-0.091552734
-0.091247559
-0.091247559
-0.091247559
-0.091247559
-0.090332031
-0.088500977
-0.085754395
-0.082702637
-0.08026123
-0.078430176
-0.076904297
-0.075378418
-0.074157715
-0.073242188
-0.073547363
-0.074462891
-0.076293945
-0.078430176
-0.080566406
-0.083312988
-0.086669922
-0.08972168
-0.092468262
-0.094299316
-0.095825195
-0.096740723
-0.097045898
-0.096740723
-0.095825195
-0.093383789
-0.08972168
-0.085144043
-0.079040527
-0.072021484
-0.065002441
-0.057983398
-0.051269531
-0.044250488
-0.037536621
-0.030517578
-0.023803711
-0.017700195
-0.012207031
-0.0082397461
-0.0051879883
-0.0030517578
-0.0018310547
-0.00091552734
-0.0012207031
-0.0021362305
-0.0039672852
-0.007019043
-0.010681152
-0.015563965
-0.020446777
-0.025634766
-0.030212402
-0.034790039
-0.038452148
-0.041809082
-0.04486084
-0.047607422
-0.050354004
-0.053100586
-0.055847168
-0.058288574
-0.06072998
-0.062866211
-0.06439209
-0.065917969
-0.067138672
-0.068054199
-0.068969727
-0.069885254
-0.070495605
-0.071411133
-0.07232666
-0.072631836
-0.072631836
-0.072021484
-0.071105957
-0.069580078
-0.068054199
-0.066223145
-0.064086914
-0.061950684
-0.059509277
-0.057373047
-0.055847168
-0.054321289
-0.05279541
-0.051269531
-0.049743652
-0.048217773
-0.046691895
-0.045166016
-0.043029785
-0.040283203
-0.03692627
-0.03326416
-0.029907227
-0.026550293
-0.023193359
-0.019226074
-0.014648438
-0.0085449219
-0.0015258789
0.007019043
0.017089844
0.028076172
0.039978027
0.052490234
0.064697266
0.076904297
0.087890625
0.097351074
0.10467529
0.10925293
0.11047363
0.10772705
0.10040283
0.088500977
0.071716309
0.050964355
0.026245117
-0.0021362305
-0.034179688
-0.069580078
-0.1071167
-0.14556885
-0.18280029
-0.21789551
-0.24902344
-0.27648926
-0.29937744
-0.31768799
-0.33111572
-0.33996582
-0.34454346
-0.34515381
-0.34179688
-0.33538818
-0.32653809
-0.31585693
-0.3036499
-0.2911377
-0.27862549
-0.26641846
-0.25512695
-0.24475098
-0.2355957
-0.22705078
-0.21911621
-0.21209717
-0.2053833
-0.19989014
-0.1953125
-0.19134521
-0.18676758
-0.18188477
-0.1763916
-0.17059326
-0.16448975
-0.15838623
-0.15197754
-0.14526367
-0.1385498
-0.13183594
-0.12542725
-0.12023926
-0.11566162
-0.11169434
-0.10803223
-0.10528564
-0.10314941
-0.10253906
-0.10314941
-0.105896
-0.11016846
-0.1159668
-0.12329102
-0.13214111
-0.14190674
-0.15228271
-0.16296387
-0.1739502
-0.18493652
-0.19561768
-0.20629883
-0.21636963
-0.22491455
-0.23223877
-0.23834229
-0.24291992
-0.24597168
-0.24749756
-0.24658203
-0.24414062
-0.23986816
-0.234375
-0.22735596
-0.21911621
-0.20996094
-0.20050049
-0.19073486
-0.18127441
-0.17211914
-0.16357422
-0.15594482
-0.14892578
-0.14221191
-0.1361084
-0.13061523
-0.12573242
-0.12145996
-0.11810303
-0.11566162
-0.11352539
-0.11199951
-0.11077881
-0.11016846
-0.10986328
-0.10955811
-0.10894775
-0.1083374
-0.10772705
-0.10681152
-0.10650635
-0.10620117
-0.10681152
-0.1083374
-0.11138916
-0.11566162
-0.12115479
-0.12695312
-0.13275146
-0.13763428
-0.14160156
-0.1449585
-0.14770508
-0.14923096
-0.14984131
-0.14923096
-0.14770508
-0.14587402
-0.14343262
-0.14099121
-0.13793945
-0.1348877
-0.13122559
-0.12786865
-0.12542725
-0.12390137
-0.12390137
-0.12512207
-0.12786865
-0.13153076
-0.13519287
-0.1385498
-0.14190674
-0.1449585
-0.1473999
-0.14953613
-0.15167236
-0.15319824
-0.15472412
-0.15533447
-0.1550293
-0.15411377
-0.15289307
-0.15106201
-0.14831543
-0.14526367
-0.14221191
-0.13977051
-0.1373291
-0.13519287
-0.13275146
-0.12969971
-0.1260376
-0.12176514
-0.11627197
-0.11047363
-0.10406494
-0.09765625
-0.092163086
-0.086669922
-0.082092285
-0.077819824
-0.073852539
-0.070495605
-0.067443848
-0.065002441
-0.063171387
-0.061645508
-0.06072998
-0.060119629
-0.059509277
-0.058288574
-0.057067871
-0.055541992
-0.053405762
-0.050354004
-0.045776367
-0.039367676
-0.030517578
-0.019836426
-0.0082397461
0.0033569336
0.014038086
0.023803711
0.032653809
0.040893555
0.048828125
0.05645752
0.063476562
0.069580078
0.074768066
0.078735352
0.081176758
0.081481934
0.080566406
0.079040527
0.077209473
0.07598877
0.074768066
0.073547363
0.072631836
0.07232666
0.072937012
0.074462891
0.076904297
0.079040527
0.081481934
0.08392334
0.086669922
0.089416504
0.092773438
0.096740723
0.10162354
0.10742188
0.11444092
0.12207031
0.13000488
0.13824463
0.14648438
0.15441895
0.16174316
0.16876221
0.1751709
0.18035889
0.1852417
0.18920898
0.19317627
0.1965332
0.19958496
0.20202637
0.2041626
0.20507812
0.20477295
0.20294189
0.20050049
0.19775391
0.1953125
0.1940918
0.19348145
0.1940918
0.19561768
0.19775391
0.19958496
0.20111084
0.20263672
0.20446777
0.206604
0.20935059
0.21209717
0.21484375
0.2166748
0.21759033
0.21759033
0.2166748
0.21484375
0.21209717
0.20843506
0.20355225
0.19744873
0.19012451
0.18157959
0.17242432
0.16265869
0.15319824
0.14343262
0.13397217
0.12481689
0.11627197
0.10894775
0.10314941
0.10040283
0.10040283
0.10284424
0.10742188
0.11383057
0.12115479
0.12908936
0.13671875
0.14282227
0.14709473
0.14953613
0.15075684
0.15075684
0.14862061
0.1449585
0.1385498
0.12969971
0.11871338
0.105896
0.09185791
0.077819824
0.063781738
0.050964355
0.039978027
0.03112793
0.025024414
0.020751953
0.018615723
0.018005371
0.018615723
0.020446777
0.023193359
0.026550293
0.030212402
0.034179688
0.037231445
0.038757324
0.038146973
0.035095215
0.029602051
0.021362305
0.010681152
-0.0012207031
-0.014343262
-0.028381348
-0.043334961
-0.059204102
-0.075073242
-0.090026855
-0.10284424
-0.11322021
-0.12084961
-0.1260376
-0.12908936
-0.13061523
-0.13092041
-0.12969971
-0.12695312
-0.12298584
-0.11779785
-0.11169434
-0.10528564
-0.099182129
-0.094604492
-0.091552734
-0.090637207
-0.091552734
-0.094299316
-0.099182129
-0.10528564
-0.11291504
-0.12115479
-0.12908936
-0.13671875
-0.14373779
-0.15014648
-0.15625
-0.16143799
-0.16540527
-0.16845703
-0.16998291
-0.17059326
-0.16998291
-0.16845703
-0.16662598
-0.16448975
-0.16204834
-0.15991211
-0.15777588
-0.15563965
-0.15350342
-0.15197754
-0.15075684
-0.15014648
-0.14953613
-0.14892578
-0.14831543
-0.14770508
-0.14709473
-0.14587402
-0.14465332
-0.14373779
-0.14282227
-0.14190674
-0.14129639
-0.14068604
-0.14068604
-0.14129639
-0.14251709
-0.14434814
-0.14678955
-0.15014648
-0.15441895
-0.15899658
-0.16387939
-0.16845703
-0.17181396
-0.17425537
-0.1751709
-0.1751709
-0.17364502
-0.17089844
-0.1675415
-0.16418457
-0.16082764
-0.15716553
-0.15258789
-0.14770508
-0.14221191
-0.13702393
-0.13244629
-0.12817383
-0.12481689
-0.12298584
-0.12268066
-0.12359619
-0.12573242
-0.12878418
-0.13336182
-0.13885498
-0.14465332
-0.15075684
-0.15655518
-0.16174316
-0.1663208
-0.17059326
-0.1739502
-0.17700195
-0.17944336
-0.18096924
-0.18157959
-0.18127441
-0.17944336
-0.17578125
-0.17059326
-0.16387939
-0.15594482
-0.14678955
-0.13702393
-0.12695312
-0.11657715
-0.10620117
-0.09552002
-0.084838867
-0.074157715
-0.063781738
-0.054016113
-0.04486084
-0.036010742
-0.027770996
-0.019836426
-0.012817383
-0.007019043
-0.0024414062
0.0018310547
0.0054931641
0.0091552734
0.012512207
0.014648438
0.016174316
0.016479492
0.016174316
0.015563965
0.014648438
0.013122559
0.010986328
0.0085449219
0.0051879883
0.0015258789
-0.0021362305
-0.0057983398
-0.0094604492
-0.012817383
-0.015869141
-0.018920898
-0.021972656
-0.025024414
-0.02746582
-0.029602051
-0.031738281
-0.034179688
-0.03692627
-0.040283203
-0.043640137
-0.047607422
-0.052185059
-0.057678223
-0.063781738
-0.070495605
-0.078125
-0.086364746
-0.094604492
-0.10253906
-0.11047363
-0.11749268
-0.12390137
-0.12878418
-0.13214111
-0.13336182
-0.13336182
-0.13214111
-0.13061523
-0.12786865
-0.12420654
-0.11932373
-0.11291504
-0.10559082
-0.097961426
-0.090026855
-0.082702637
-0.07598877
-0.070800781
-0.066833496
-0.064697266
-0.06439209
-0.065307617
-0.067138672
-0.07019043
-0.073852539
-0.077514648
-0.081176758
-0.084533691
-0.087280273
-0.08972168
-0.091247559
-0.092468262
-0.092773438
-0.09185791
-0.08972168
-0.086364746
-0.081787109
-0.076293945
-0.070495605
-0.064697266
-0.059204102
-0.054321289
-0.050354004
-0.047912598
-0.04699707
-0.047302246
-0.049133301
-0.052185059
-0.057067871
-0.063476562
-0.071105957
-0.078735352
-0.08605957
-0.092468262
-0.097961426
-0.10223389
-0.10559082
-0.10742188
-0.10803223
-0.10742188
-0.10559082
-0.10253906
-0.098876953
-0.094604492
-0.08972168
-0.084228516
-0.078125
-0.072631836
-0.068359375
-0.065917969
-0.065612793
-0.06652832
-0.068664551
-0.071105957
-0.073547363
-0.076293945
-0.078735352
-0.080871582
-0.083007812
-0.085144043
-0.087280273
-0.090026855
-0.092773438
-0.095214844
-0.096435547
-0.096130371
-0.095214844
-0.093688965
-0.092468262
-0.092163086
-0.09185791
-0.091247559
-0.08972168
-0.086669922
-0.081481934
-0.074157715
-0.065307617
-0.055541992
-0.045471191
-0.035095215
-0.024108887
-0.012512207
0
0.012817383
0.025634766
0.038146973
0.049743652
0.059814453
0.067749023
0.073547363
0.077209473
0.077819824
0.075683594
0.070800781
0.064086914
0.056762695
0.048828125
0.04119873
0.033874512
0.02746582
0.022277832
0.018310547
0.016174316
0.015869141
0.016784668
0.018920898
0.021972656
0.025939941
0.030212402
0.035095215
0.039978027
0.04486084
0.049438477
0.053100586
0.055541992
0.056152344
0.054931641
0.052490234
0.048522949
0.043029785
0.03692627
0.030517578
0.024414062
0.018310547
0.013427734
0.0094604492
0.0067138672
0.0054931641
0.0057983398
0.007019043
0.009765625
0.013122559
0.016784668
0.020751953
0.024108887
0.027160645
0.028991699
0.029602051
0.028686523
0.026245117
0.022277832
0.017700195
0.012817383
0.0073242188
0.0018310547
-0.0036621094
-0.0094604492
-0.014648438
-0.019226074
-0.022583008
-0.024414062
-0.024719238
-0.022888184
-0.018920898
-0.012817383
-0.0048828125
0.0045776367
0.015258789
0.025939941
0.036621094
0.046386719
0.055236816
0.062561035
0.068664551
0.073242188
0.076904297
0.079345703
0.079956055
0.078735352
0.075378418
0.070495605
0.064086914
0.057067871
0.049743652
0.042419434
0.034790039
0.027160645
0.020141602
0.014038086
0.0085449219
0.0045776367
0.0018310547
0.0012207031
0.0021362305
0.0042724609
0.0076293945
0.011901855
0.016479492
0.021362305
0.026550293
0.031738281
0.036621094
0.04119873
0.04486084
0.047302246
0.049133301
0.050354004
0.050964355
0.05065918
0.049438477
0.047912598
0.045471191
0.043334961
0.04119873
0.0390625
0.036621094
0.034484863
0.032043457
0.030517578
0.029602051
0.029296875
0.029907227
0.030822754
0.032043457
0.032653809
0.032958984
0.032958984
0.032653809
0.032348633
0.032043457
0.03112793
0.029296875
0.02746582
0.025634766
0.024108887
0.023193359
0.022888184
0.021972656
0.021057129
0.01953125
0.018310547
0.01739502
0.017089844
0.018310547
0.020751953
0.024108887
0.028076172
0.032043457
0.036010742
0.039672852
0.042724609
0.044555664
0.045776367
0.046386719
0.046691895
0.046691895
0.045776367
0.043945312
0.04119873
0.037231445
0.032653809
0.02746582
0.021362305
0.015258789
0.0091552734
0.0033569336
-0.0018310547
-0.0061035156
-0.0094604492
-0.011291504
-0.011291504
-0.010070801
-0.0079345703
-0.0051879883
-0.0021362305
0.0012207031
0.0064086914
0.01373291
0.023803711
0.036010742
0.05065918
0.067749023
0.086669922
0.10803223
0.13092041
0.15563965
0.18188477
0.20935059
0.23803711
0.26733398
0.29571533
0.3225708
0.34606934
0.36499023
0.37841797
0.38543701
0.38482666
0.37658691
0.3604126
0.33660889
0.30609131
0.26947021
0.22766113
0.18157959
0.13244629
0.081481934
0.029907227
-0.021057129
-0.070800781
-0.11779785
-0.16113281
-0.19897461
-0.23101807
-0.25604248
-0.2746582
-0.28656006
-0.29296875
-0.2947998
-0.2923584
-0.28686523
-0.27801514
-0.26641846
-0.25177002
-0.23468018
-0.21606445
-0.19714355
-0.17852783
-0.16082764
-0.14404297
-0.128479
-0.11383057
-0.10009766
-0.087585449
-0.075683594
-0.06439209
-0.054321289
-0.046081543
-0.039367676
-0.035095215
-0.032653809
-0.03112793
-0.030822754
-0.03112793
-0.031738281
-0.032653809
-0.033874512
-0.035400391
-0.036315918
-0.036621094
-0.036315918
-0.035400391
-0.033874512
-0.032043457
-0.029602051
-0.027160645
-0.024719238
-0.022583008
-0.01953125
-0.016174316
-0.012512207
-0.0088500977
-0.0051879883
-0.0021362305
0.00030517578
0.002746582
0.0045776367
0.0067138672
0.0085449219
0.010681152
0.012817383
0.014953613
0.017089844
0.019226074
0.020446777
0.02166748
0.022888184
0.024108887
0.02532959
0.026855469
0.028076172
0.029296875
0.029907227
0.029907227
0.029602051
0.028991699
0.028686523
0.028076172
0.02746582
0.027160645
0.026550293
0.025939941
0.02532959
0.025024414
0.025024414
0.025634766
0.027160645
0.029602051
0.032348633
0.035095215
0.038452148
0.042114258
0.046386719
0.051574707
0.056762695
0.061645508
0.065307617
0.068359375
0.070800781
0.073547363
0.076293945
0.079040527
0.081787109
0.08392334
0.085754395
0.086669922
0.086975098
0.086975098
0.086364746
0.085754395
0.085144043
0.084838867
0.084533691
0.084228516
0.08392334
0.083618164
0.083312988
0.083618164
0.084228516
0.084533691
0.084228516
0.083007812
0.081481934
0.079956055
0.078125
0.076599121
0.075378418
0.074157715
0.073242188
0.072631836
0.07232666
0.072631836
0.073242188
0.074462891
0.07598877
0.078125
0.080871582
0.083618164
0.086669922
0.08972168
0.093383789
0.097045898
0.10070801
0.10437012
0.10772705
0.11077881
0.11383057
0.11627197
0.1184082
0.11962891
0.11993408
0.11932373
0.11810303
0.11627197
0.11505127
0.11413574
0.11474609
0.11627197
0.11962891
0.12420654
0.13092041
0.14038086
0.15258789
0.16815186
0.18737793
0.20935059
0.23376465
0.25909424
0.28411865
0.30792236
0.33050537
0.35125732
0.36987305
0.38696289
0.4019165
0.41442871
0.42388916
0.42938232
0.43060303
0.42755127
0.42022705
0.40924072
0.39428711
0.37628174
0.35552979
0.33355713
0.31036377
0.28717041
0.26397705
0.24139404
0.21911621
0.19744873
0.1763916
0.15625
0.13702393
0.11932373
0.10284424
0.088195801
0.075683594
0.065612793
0.05859375
0.055236816
0.054626465
0.05645752
0.059509277
0.063781738
0.068969727
0.075378418
0.083312988
0.092773438
0.10406494
0.1159668
0.128479
0.14099121
0.15319824
0.16479492
0.17547607
0.18432617
0.19165039
0.19683838
0.20050049
0.20233154
0.20233154
0.20019531
0.1965332
0.19073486
0.18371582
0.17578125
0.16723633
0.15899658
0.15106201
0.14373779
0.13702393
0.13061523
0.12451172
0.11871338
0.11413574
0.11047363
0.10803223
0.10681152
0.1071167
0.10772705
0.10894775
0.10925293
0.10925293
0.10742188
0.10467529
0.10070801
0.095825195
0.090332031
0.084838867
0.079956055
0.076599121
0.074157715
0.072631836
0.071716309
0.071105957
0.070800781
0.070800781
0.071411133
0.072021484
0.072937012
0.073852539
0.074768066
0.075378418
0.075073242
0.073852539
0.071105957
0.066833496
0.061645508
0.055236816
0.048217773
0.040893555
0.032653809
0.024414062
0.015869141
0.0076293945
0
-0.007019043
-0.013122559
-0.018615723
-0.023803711
-0.028991699
-0.033874512
-0.037841797
-0.041503906
-0.045166016
-0.048522949
-0.051879883
-0.055541992
-0.059509277
-0.063781738
-0.068664551
-0.073852539
-0.079345703
-0.085449219
-0.091552734
-0.097961426
-0.10375977
-0.10986328
-0.11566162
-0.12176514
-0.12786865
-0.13427734
-0.14099121
-0.14862061
-0.15777588
-0.16815186
-0.17974854
-0.19195557
-0.20385742
-0.21575928
-0.22705078
-0.23803711
-0.24841309
-0.25848389
-0.26794434
-0.27679443
-0.28442383
-0.29022217
-0.29418945
-0.29632568
-0.29724121
-0.29663086
-0.2947998
-0.29083252
-0.28533936
-0.27832031
-0.26977539
-0.26062012
-0.25177002
-0.24353027
-0.23620605
-0.22979736
-0.22399902
-0.21911621
-0.21484375
-0.21148682
-0.20812988
-0.20507812
-0.20172119
-0.19744873
-0.19317627
-0.18829346
-0.18310547
-0.1776123
-0.17120361
-0.16326904
-0.15411377
-0.14373779
-0.13275146
-0.12115479
-0.10894775
-0.096740723
-0.08392334
-0.071105957
-0.057983398
-0.045471191
-0.03326416
-0.022277832
-0.012207031
-0.0030517578
0.0045776367
0.010986328
0.015869141
0.01953125
0.021972656
0.023498535
0.024108887
0.024108887
0.023498535
0.022277832
0.020141602
0.016479492
0.011291504
0.0048828125
-0.0021362305
-0.0094604492
-0.016784668
-0.023803711
-0.030517578
-0.03692627
-0.043029785
-0.049133301
-0.054931641
-0.060119629
-0.064086914
-0.067443848
-0.069274902
-0.069885254
-0.069580078
-0.068359375
-0.067138672
-0.06652832
-0.06652832
-0.066833496
-0.066833496
-0.066223145
-0.065307617
-0.064086914
-0.062866211
-0.061645508
-0.06072998
-0.060119629
-0.060119629
-0.060119629
-0.060119629
-0.059509277
-0.058288574
-0.056762695
-0.055236816
-0.053710938
-0.052490234
-0.051879883
-0.051574707
-0.051879883
-0.05279541
-0.054016113
-0.055541992
-0.057983398
-0.06072998
-0.06439209
-0.068664551
-0.073242188
-0.077209473
-0.079956055
-0.081176758
-0.080871582
-0.079345703
-0.076599121
-0.072937012
-0.068054199
-0.062255859
-0.055847168
-0.048828125
-0.041503906
-0.033874512
-0.026245117
-0.018615723
-0.010986328
-0.0033569336
0.0030517578
0.0079345703
0.011291504
0.013427734
0.014343262
0.014038086
0.01373291
0.013427734
0.013122559
0.012817383
0.011901855
0.010986328
0.009765625
0.0085449219
0.0076293945
0.0073242188
0.007019043
0.0073242188
0.0073242188
0.0076293945
0.0079345703
0.0079345703
0.0076293945
0.0076293945
0.0073242188
0.0067138672
0.0061035156
0.0048828125
0.0036621094
0.0021362305
0.00061035156
-0.0012207031
-0.0033569336
-0.0054931641
-0.0079345703
-0.010070801
-0.012817383
-0.015869141
-0.019226074
-0.022888184
-0.026550293
-0.030212402
-0.033874512
-0.03692627
-0.040283203
-0.043334961
-0.046081543
-0.049133301
-0.052490234
-0.055847168
-0.059814453
-0.064086914
-0.068664551
-0.073547363
-0.079040527
-0.08392334
-0.088806152
-0.092773438
-0.096740723
-0.10101318
-0.10559082
-0.11047363
-0.11535645
-0.11993408
-0.12420654
-0.12756348
-0.13031006
-0.13214111
-0.13336182
-0.13366699
-0.13397217
-0.13427734
-0.13427734
-0.13427734
-0.13427734
-0.13366699
-0.13244629
-0.13092041
-0.12908936
-0.12756348
-0.12695312
-0.12786865
-0.12908936
-0.13061523
-0.13153076
-0.13183594
-0.13153076
-0.13122559
-0.13092041
-0.13061523
-0.13092041
-0.13183594
-0.13336182
-0.1348877
-0.13580322
-0.13580322
-0.13458252
-0.13275146
-0.13061523
-0.12786865
-0.12542725
-0.12268066
-0.12054443
-0.1184082
-0.11627197
-0.11413574
-0.11138916
-0.10803223
-0.10467529
-0.10101318
-0.097351074
-0.093688965
-0.090332031
-0.087890625
-0.08605957
-0.085144043
-0.084228516
-0.083618164
-0.083007812
-0.082702637
-0.082397461
-0.082397461
-0.083007812
-0.08392334
-0.084838867
-0.08605957
-0.086669922
-0.086975098
-0.087280273
-0.087585449
-0.087890625
-0.087890625
-0.087585449
-0.087280273
-0.086669922
-0.08605957
-0.085449219
-0.085144043
-0.085144043
-0.085449219
-0.085754395
-0.08605957
-0.08605957
-0.08605957
-0.085754395
-0.085144043
-0.084533691
-0.084228516
-0.084533691
-0.085144043
-0.085144043
-0.084533691
-0.083007812
-0.081176758
-0.079345703
-0.077514648
-0.07598877
-0.074462891
-0.073547363
-0.072937012
-0.07232666
-0.07232666
-0.07232666
-0.07232666
-0.072631836
-0.072937012
-0.073242188
-0.073547363
-0.073547363
-0.073547363
-0.073242188
-0.07232666
-0.071105957
-0.068969727
-0.065917969
-0.062866211
-0.059814453
-0.057067871
-0.054626465
-0.05279541
-0.050964355
-0.049133301
-0.047607422
-0.046081543
-0.044555664
-0.043334961
-0.042724609
-0.042724609
-0.043334961
-0.04486084
-0.046691895
-0.049133301
-0.050964355
-0.052490234
-0.053710938
-0.054321289
-0.054321289
-0.054321289
-0.054626465
-0.054931641
-0.055541992
-0.056762695
-0.058288574
-0.059509277
-0.060424805
-0.060119629
-0.059509277
-0.058288574
-0.057373047
-0.056762695
-0.05645752
-0.056762695
-0.057067871
-0.057678223
-0.057983398
-0.057983398
-0.057678223
-0.057067871
-0.056762695
-0.05645752
-0.05645752
-0.056762695
-0.057678223
-0.058898926
-0.061035156
-0.063476562
-0.066833496
-0.07019043
-0.073547363
-0.076293945
-0.079040527
-0.081481934
-0.084533691
-0.088195801
-0.092773438
-0.09765625
-0.10253906
-0.1071167
-0.11138916
-0.11444092
-0.11688232
-0.1184082
-0.11962891
-0.12023926
-0.12084961
-0.12115479
-0.12115479
-0.12023926
-0.11901855
-0.11749268
-0.11566162
-0.11352539
-0.11138916
-0.10925293
-0.1071167
-0.10559082
-0.10467529
-0.10406494
-0.10437012
-0.10467529
-0.10528564
-0.10620117
-0.10681152
-0.10742188
-0.1071167
-0.10681152
-0.10620117
-0.105896
-0.10620117
-0.10620117
-0.105896
-0.10528564
-0.10467529
-0.10375977
-0.10284424
-0.10223389
-0.10192871
-0.10192871
-0.10253906
-0.10345459
-0.10467529
-0.10620117
-0.10742188
-0.10894775
-0.10986328
-0.11016846
-0.11016846
-0.11016846
-0.11016846
-0.11077881
-0.11138916
-0.11169434
-0.11108398
-0.10986328
-0.10803223
-0.10559082
-0.10314941
-0.10101318
-0.09979248
-0.098876953
-0.098266602
-0.09765625
-0.097045898
-0.096740723
-0.096740723
-0.096740723
-0.097351074
-0.098266602
-0.09979248
-0.10162354
-0.10314941
-0.10437012
-0.10559082
-0.10650635
-0.10742188
-0.10864258
-0.10955811
-0.11077881
-0.11230469
-0.11352539
-0.11474609
-0.11535645
-0.11535645
-0.11474609
-0.11383057
-0.11260986
-0.11169434
-0.11108398
-0.11169434
-0.11260986
-0.11413574
-0.1159668
-0.11779785
-0.11962891
-0.12115479
-0.12298584
-0.12542725
-0.128479
-0.13153076
-0.13458252
-0.13763428
-0.14068604
-0.14312744
-0.14465332
-0.14556885
-0.14556885
-0.14404297
-0.14068604
-0.13519287
-0.12756348
-0.11779785
-0.10559082
-0.090942383
-0.073852539
-0.054016113
-0.031738281
-0.0067138672
0.020751953
0.050354004
0.081176758
0.11260986
0.14373779
0.17333984
0.20050049
0.22460938
0.2444458
0.25909424
0.26733398
0.26885986
0.26306152
0.25054932
0.23101807
0.20507812
0.17333984
0.13580322
0.093688965
0.047912598
0.00030517578
-0.047912598
-0.095214844
-0.14038086
-0.18188477
-0.21972656
-0.25268555
-0.28076172
-0.3036499
-0.32073975
-0.33203125
-0.33782959
-0.33874512
-0.33569336
-0.32897949
-0.31951904
-0.30792236
-0.29449463
-0.28015137
-0.26550293
-0.25085449
-0.23651123
-0.22277832
-0.20904541
-0.1953125
-0.18157959
-0.16784668
-0.15472412
-0.14190674
-0.13000488
-0.11932373
-0.10955811
-0.10101318
-0.093383789
-0.086669922
-0.080871582
-0.075378418
-0.070800781
-0.066833496
-0.06439209
-0.062561035
-0.062255859
-0.062255859
-0.062561035
-0.062866211
-0.063781738
-0.06439209
-0.065307617
-0.065612793
-0.065917969
-0.06652832
-0.067138672
-0.067749023
-0.068054199
-0.068054199
-0.067443848
-0.066833496
-0.065612793
-0.063781738
-0.061950684
-0.059204102
-0.05645752
-0.053710938
-0.051574707
-0.050964355
-0.051879883
-0.053100586
-0.054321289
-0.055236816
-0.055541992
-0.055847168
-0.05645752
-0.057678223
-0.060119629
-0.062866211
-0.066223145
-0.069580078
-0.072021484
-0.073852539
-0.074768066
-0.075378418
-0.075378418
-0.075378418
-0.074768066
-0.073852539
-0.072631836
-0.070495605
-0.068359375
-0.066223145
-0.064086914
-0.062866211
-0.061950684
-0.061645508
-0.061645508
-0.061645508
-0.062255859
-0.062866211
-0.063781738
-0.06439209
-0.065002441
-0.065917969
-0.06652832
-0.066833496
-0.067443848
-0.068359375
-0.069274902
-0.069885254
-0.069580078
-0.068969727
-0.067749023
-0.065612793
-0.063476562
-0.061035156
-0.05859375
-0.056762695
-0.054931641
-0.053405762
-0.052185059
-0.05065918
-0.049133301
-0.04699707
-0.044555664
-0.042114258
-0.039978027
-0.038757324
-0.038146973
-0.038146973
-0.038452148
-0.0390625
-0.039672852
-0.040283203
-0.041503906
-0.043029785
-0.045166016
-0.047302246
-0.049438477
-0.051574707
-0.053405762
-0.055236816
-0.056762695
-0.057373047
-0.057067871
-0.055847168
-0.054016113
-0.051879883
-0.050048828
-0.048828125
-0.047607422
-0.046386719
-0.044555664
-0.042419434
-0.040588379
-0.038757324
-0.037536621
-0.037231445
-0.037536621
-0.038452148
-0.039978027
-0.04119873
-0.042419434
-0.043945312
-0.045166016
-0.046691895
-0.047302246
-0.047302246
-0.046691895
-0.045776367
-0.044250488
-0.042419434
-0.039978027
-0.036621094
-0.032653809
-0.028381348
-0.023803711
-0.019226074
-0.014953613
-0.010681152
-0.007019043
-0.0039672852
-0.0015258789
0.00061035156
0.0021362305
0.0036621094
0.0054931641
0.0076293945
0.0091552734
0.010375977
0.011291504
0.012207031
0.012512207
0.013122559
0.01373291
0.014953613
0.016479492
0.018005371
0.01953125
0.021057129
0.022583008
0.023803711
0.02532959
0.026550293
0.027770996
0.028686523
0.028991699
0.028381348
0.027160645
0.024414062
0.021362305
0.018310547
0.015563965
0.013427734
0.011901855
0.010681152
0.010070801
0.009765625
0.010070801
0.010375977
0.010681152
0.011291504
0.011901855
0.012817383
0.014648438
0.017089844
0.020446777
0.023803711
0.027160645
0.030517578
0.03326416
0.035400391
0.03692627
0.037841797
0.037841797
0.037231445
0.03692627
0.03692627
0.037536621
0.038146973
0.038757324
0.039367676
0.039672852
0.039672852
0.039367676
0.039367676
0.039367676
0.039672852
0.040588379
0.042419434
0.044250488
0.046386719
0.048217773
0.049438477
0.050048828
0.050048828
0.049743652
0.049438477
0.049133301
0.049438477
0.049438477
0.049743652
0.049133301
0.047607422
0.045776367
0.044250488
0.042724609
0.040893555
0.0390625
0.036315918
0.03326416
0.029907227
0.026855469
0.023193359
0.019226074
0.014648438
0.010070801
0.0054931641
0.00030517578
-0.0045776367
-0.009765625
-0.015258789
-0.020446777
-0.02532959
-0.029907227
-0.034179688
-0.037841797
-0.04119873
-0.043945312
-0.046691895
-0.048828125
-0.050964355
-0.053100586
-0.055236816
-0.058288574
-0.061645508
-0.065917969
-0.069885254
-0.074157715
-0.078430176
-0.082702637
-0.086975098
-0.091552734
-0.095825195
-0.10070801
-0.10528564
-0.10986328
-0.11383057
-0.11688232
-0.11871338
-0.11993408
-0.12054443
-0.12054443
-0.12023926
-0.11962891
-0.11901855
-0.1184082
-0.11810303
-0.1171875
-0.11627197
-0.11505127
-0.11383057
-0.11260986
-0.11199951
-0.11169434
-0.11169434
-0.11169434
-0.11199951
-0.11260986
-0.11383057
-0.11566162
-0.11779785
-0.12023926
-0.12329102
-0.12695312
-0.13031006
-0.13366699
-0.13671875
-0.13946533
-0.14160156
-0.14343262
-0.14526367
-0.14678955
-0.14831543
-0.14923096
-0.14984131
-0.14984131
-0.14923096
-0.14831543
-0.14678955
-0.14465332
-0.14190674
-0.13885498
-0.13580322
-0.13305664
-0.13061523
-0.128479
-0.12664795
-0.12481689
-0.12329102
-0.12207031
-0.12084961
-0.11993408
-0.11901855
-0.11871338
-0.11871338
-0.11932373
-0.12054443
-0.12207031
-0.12390137
-0.12573242
-0.12786865
-0.12939453
-0.13153076
-0.13336182
-0.13519287
-0.13671875
-0.13763428
-0.1385498
-0.13885498
-0.1385498
-0.13763428
-0.13641357
-0.13458252
-0.13305664
-0.13153076
-0.13031006
-0.12939453
-0.12817383
-0.12756348
-0.12695312
-0.12664795
-0.12695312
-0.12756348
-0.12878418
-0.13031006
-0.13244629
-0.1348877
-0.13702393
-0.1385498
-0.13977051
-0.14038086
-0.14068604
-0.14099121
-0.14099121
-0.14007568
-0.13885498
-0.13702393
-0.13458252
-0.13183594
-0.12908936
-0.1260376
-0.12268066
-0.11932373
-0.11566162
-0.11230469
-0.10955811
-0.10681152
-0.10467529
-0.10345459
-0.10253906
-0.10223389
-0.10284424
-0.10345459
-0.10467529
-0.10559082
-0.10681152
-0.1083374
-0.10986328
-0.11199951
-0.11352539
-0.11535645
-0.11627197
-0.11688232
-0.11657715
-0.11566162
-0.11413574
-0.11291504
-0.11138916
-0.10986328
-0.10772705
-0.10498047
-0.10192871
-0.098571777
-0.09552002
-0.093078613
-0.091247559
-0.090332031
-0.089416504
-0.089111328
-0.088806152
-0.089111328
-0.08972168
-0.091247559
-0.093078613
-0.095214844
-0.09765625
-0.10040283
-0.10253906
-0.10467529
-0.10620117
-0.1071167
-0.10772705
-0.10803223
-0.10803223
-0.10772705
-0.10772705
-0.10742188
-0.10681152
-0.10620117
-0.10528564
-0.10437012
-0.10284424
-0.10131836
-0.09979248
-0.098571777
-0.097961426
-0.097961426
-0.098266602
-0.098876953
-0.099182129
-0.099487305
-0.099487305
-0.099182129
-0.098876953
-0.098266602
-0.09765625
-0.097351074
-0.096740723
-0.095825195
-0.094604492
-0.093078613
-0.09185791
-0.090637207
-0.090026855
-0.090026855
-0.090637207
-0.09185791
-0.093078613
-0.093994141
-0.094909668
-0.09552002
-0.095825195
-0.096435547
-0.096740723
-0.096740723
-0.096740723
-0.096130371
-0.094604492
-0.092468262
-0.08972168
-0.086975098
-0.084228516
-0.082092285
-0.080566406
-0.079345703
-0.078430176
-0.077209473
-0.076293945
-0.075378418
-0.074462891
-0.073852539
-0.073242188
-0.072937012
-0.07232666
-0.071411133
-0.070495605
-0.069885254
-0.069885254
-0.070800781
-0.07232666
-0.073852539
-0.075073242
-0.075683594
-0.075378418
-0.074768066
-0.074157715
-0.073852539
-0.074157715
-0.074768066
-0.075378418
-0.075683594
-0.07598877
-0.07598877
-0.075683594
-0.074768066
-0.072937012
-0.071105957
-0.068969727
-0.06652832
-0.064697266
-0.063171387
-0.061950684
-0.061340332
-0.061035156
-0.061340332
-0.062255859
-0.063171387
-0.06439209
-0.065917969
-0.067138672
-0.067749023
-0.068054199
-0.067749023
-0.067443848
-0.06652832
-0.065002441
-0.063476562
-0.061340332
-0.059509277
-0.057067871
-0.054626465
-0.051574707
-0.048828125
-0.045471191
-0.042419434
-0.0390625
-0.036010742
-0.032958984
-0.030517578
-0.027770996
-0.025024414
-0.022888184
-0.022277832
-0.022888184
-0.02532959
-0.029296875
-0.033874512
-0.038757324
-0.043029785
-0.046691895
-0.049438477
-0.052490234
-0.054931641
-0.057067871
-0.058898926
-0.059814453
-0.060424805
-0.060424805
-0.060119629
-0.05859375
-0.056152344
-0.052185059
-0.047302246
-0.042114258
-0.037231445
-0.032653809
-0.028991699
-0.026245117
-0.025024414
-0.025024414
-0.026245117
-0.028381348
-0.031433105
-0.035095215
-0.039367676
-0.044250488
-0.049743652
-0.055541992
-0.061645508
-0.068054199
-0.074157715
-0.079956055
-0.085754395
-0.091247559
-0.096435547
-0.10131836
-0.10528564
-0.10864258
-0.11108398
-0.11260986
-0.11352539
-0.11413574
-0.11444092
-0.11444092
-0.11444092
-0.11413574
-0.11413574
-0.11352539
-0.11322021
-0.11291504
-0.11230469
-0.11138916
-0.11047363
-0.10955811
-0.10864258
-0.10742188
-0.105896
-0.10437012
-0.10314941
-0.10192871
-0.10131836
-0.10101318
-0.10101318
-0.10101318
-0.10070801
-0.10009766
-0.09979248
-0.10040283
-0.10162354
-0.10375977
-0.1071167
-0.11138916
-0.11657715
-0.12207031
-0.12756348
-0.13214111
-0.13580322
-0.13824463
-0.13977051
-0.14068604
-0.14129639
-0.14190674
-0.14190674
-0.14038086
-0.13793945
-0.13427734
-0.12969971
-0.12481689
-0.11993408
-0.11474609
-0.11047363
-0.10650635
-0.10345459
-0.10131836
-0.09979248
-0.099182129
-0.098876953
-0.099487305
-0.10101318
-0.10284424
-0.10498047
-0.10650635
-0.10772705
-0.10803223
-0.1083374
-0.10772705
-0.1071167
-0.10620117
-0.10437012
-0.10253906
-0.09979248
-0.096435547
-0.093078613
-0.089111328
-0.085144043
-0.081481934
-0.078430176
-0.076599121
-0.076293945
-0.077514648
-0.079956055
-0.083312988
-0.087280273
-0.09185791
-0.096740723
-0.10192871
-0.10742188
-0.11230469
-0.1171875
-0.12176514
-0.12634277
-0.13061523
-0.13458252
-0.13763428
-0.13977051
-0.14099121
-0.14038086
-0.13793945
-0.13305664
-0.12634277
-0.11779785
-0.10772705
-0.096130371
-0.082702637
-0.067138672
-0.049133301
-0.028686523
-0.0067138672
0.017089844
0.042724609
0.069885254
0.097961426
0.12695312
0.15563965
0.18341064
0.20904541
0.23132324
0.24902344
0.26184082
0.26824951
0.26855469
0.26245117
0.24993896
0.23101807
0.20629883
0.17547607
0.13977051
0.09979248
0.056152344
0.010375977
-0.036010742
-0.082397461
-0.12756348
-0.16998291
-0.20874023
-0.24291992
-0.27191162
-0.29541016
-0.31311035
-0.32501221
-0.33172607
-0.33355713
-0.33111572
-0.32470703
-0.31555176
-0.30395508
-0.2911377
-0.27648926
-0.26123047
-0.2456665
-0.23010254
-0.21484375
-0.19989014
-0.18585205
-0.17211914
-0.15899658
-0.14678955
-0.13580322
-0.12573242
-0.11657715
-0.1083374
-0.10070801
-0.094299316
-0.088500977
-0.083312988
-0.079345703
-0.076599121
-0.075073242
-0.074462891
-0.075073242
-0.07598877
-0.077209473
-0.079040527
-0.080566406
-0.082092285
-0.083618164
-0.084838867
-0.085449219
-0.085144043
-0.084228516
-0.082702637
-0.080871582
-0.078735352
-0.07598877
-0.073242188
-0.069580078
-0.065917969
-0.061645508
-0.057067871
-0.05279541
-0.049438477
-0.04699707
-0.046081543
-0.046386719
-0.047912598
-0.049743652
-0.051879883
-0.054321289
-0.056762695
-0.059509277
-0.062255859
-0.065002441
-0.068054199
-0.071411133
-0.074157715
-0.076904297
-0.079345703
-0.081176758
-0.082092285
-0.082397461
-0.081787109
-0.080566406
-0.079040527
-0.076904297
-0.075073242
-0.073242188
-0.071105957
-0.069274902
-0.067138672
-0.065002441
-0.063171387
-0.061340332
-0.060119629
-0.059204102
-0.058288574
-0.057678223
-0.057373047
-0.057373047
-0.057373047
-0.057983398
-0.058288574
-0.05859375
-0.058898926
-0.059814453
-0.06072998
-0.062255859
-0.063476562
-0.064086914
-0.064697266
-0.065002441
-0.065002441
-0.063781738
-0.062255859
-0.060424805
-0.05859375
-0.056762695
-0.054626465
-0.052185059
-0.049743652
-0.047302246
-0.045166016
-0.043334961
-0.041809082
-0.040893555
-0.040893555
-0.041503906
-0.042419434
-0.044250488
-0.046081543
-0.047912598
-0.050354004
-0.052490234
-0.054931641
-0.056762695
-0.058288574
-0.059509277
-0.059814453
-0.059814453
-0.059509277
-0.058898926
-0.058288574
-0.057067871
-0.055847168
-0.054626465
-0.053100586
-0.051879883
-0.05065918
-0.049743652
-0.048522949
-0.047302246
-0.046386719
-0.045471191
-0.045166016
-0.045471191
-0.045776367
-0.046081543
-0.046081543
-0.046081543
-0.045471191
-0.04486084
-0.044555664
-0.044250488
-0.044250488
-0.044555664
-0.045471191
-0.046081543
-0.04699707
-0.047302246
-0.047302246
-0.046691895
-0.045166016
-0.043334961
-0.040588379
-0.037536621
-0.033874512
-0.029907227
-0.025634766
-0.02166748
-0.018310547
-0.015563965
-0.014038086
-0.012817383
-0.012207031
-0.012207031
-0.012817383
-0.014343262
-0.015869141
-0.018005371
-0.020446777
-0.023193359
-0.026245117
-0.029602051
-0.032653809
-0.035705566
-0.037841797
-0.038452148
-0.037536621
-0.035400391
-0.032653809
-0.029602051
-0.026855469
-0.024108887
-0.021057129
-0.018005371
-0.014648438
-0.011291504
-0.0085449219
-0.0054931641
-0.002746582
0
0.0024414062
0.0045776367
0.0064086914
0.0082397461
0.009765625
0.011901855
0.01373291
0.016174316
0.018920898
0.02166748
0.025024414
0.028381348
0.031433105
0.033874512
0.036010742
0.037231445
0.037536621
0.037536621
0.036621094
0.035705566
0.035095215
0.034790039
0.034790039
0.034484863
0.034484863
0.034484863
0.034484863
0.035095215
0.036010742
0.03692627
0.038757324
0.040893555
0.043640137
0.046691895
0.050354004
0.054016113
0.057678223
0.061645508
0.065612793
0.069580078
0.073547363
0.077209473
0.079956055
0.081481934
0.082092285
0.081176758
0.079345703
0.076904297
0.073852539
0.070495605
0.06652832
0.061645508
0.055847168
0.049438477
0.042419434
0.035400391
0.028076172
0.020751953
0.01373291
0.007019043
0.0012207031
-0.0039672852
-0.0082397461
-0.01159668
-0.014038086
-0.016174316
-0.01739502
-0.018615723
-0.019226074
-0.01953125
-0.019836426
-0.021057129
-0.022888184
-0.025634766
-0.028991699
-0.03326416
-0.037841797
-0.043029785
-0.048522949
-0.054016113
-0.059814453
-0.066223145
-0.07232666
-0.078430176
-0.084228516
-0.08972168
-0.094909668
-0.099487305
-0.10345459
-0.10650635
-0.10894775
-0.11077881
-0.11169434
-0.11260986
-0.11352539
-0.11444092
-0.11535645
-0.11627197
-0.11657715
-0.11627197
-0.11566162
-0.11413574
-0.11230469
-0.10986328
-0.10803223
-0.105896
-0.10437012
-0.10284424
-0.10162354
-0.10070801
-0.10070801
-0.10131836
-0.10314941
-0.10528564
-0.10803223
-0.11108398
-0.11444092
-0.11810303
-0.12176514
-0.12542725
-0.12878418
-0.13244629
-0.1361084
-0.13946533
-0.14221191
-0.14404297
-0.14465332
-0.14404297
-0.14282227
-0.14068604
-0.13824463
-0.13580322
-0.13305664
-0.13092041
-0.12908936
-0.12756348
-0.12634277
-0.12512207
-0.12420654
-0.12359619
-0.12329102
-0.12359619
-0.12390137
-0.12451172
-0.12481689
-0.12512207
-0.12481689
-0.12420654
-0.12390137
-0.12329102
-0.12298584
-0.12268066
-0.12207031
-0.12115479
-0.11993408
-0.1184082
-0.1171875
-0.11657715
-0.11657715
-0.11749268
-0.11871338
-0.11993408
-0.12115479
-0.12207031
-0.12268066
-0.12359619
-0.12420654
-0.12512207
-0.12634277
-0.12786865
-0.12939453
-0.13031006
-0.13061523
-0.13000488
-0.12817383
-0.12573242
-0.12268066
-0.11932373
-0.11627197
-0.11413574
-0.11291504
-0.11199951
-0.11169434
-0.11108398
-0.11077881
-0.11047363
-0.11047363
-0.11047363
-0.11108398
-0.11230469
-0.11352539
-0.11505127
-0.11627197
-0.11749268
-0.1184082
-0.11871338
-0.11871338
-0.11810303
-0.1171875
-0.11627197
-0.11444092
-0.11260986
-0.11016846
-0.10803223
-0.10620117
-0.10498047
-0.10437012
-0.10467529
-0.10528564
-0.10620117
-0.1071167
-0.10803223
-0.10894775
-0.10955811
-0.11016846
-0.11077881
-0.11108398
-0.11108398
-0.11077881
-0.10986328
-0.10803223
-0.10498047
-0.10101318
-0.096435547
-0.09185791
-0.087280273
-0.08392334
-0.081176758
-0.079040527
-0.077819824
-0.076599121
-0.076293945
-0.076904297
-0.077819824
-0.079650879
-0.082092285
-0.084533691
-0.087280273
-0.090332031
-0.093383789
-0.096740723
-0.09979248
-0.10192871
-0.10345459
-0.10345459
-0.10284424
-0.10192871
-0.10040283
-0.099182129
-0.098571777
-0.097961426
-0.098266602
-0.098876953
-0.099487305
-0.10040283
-0.10101318
-0.10131836
-0.10131836
-0.10131836
-0.10101318
-0.10009766
-0.099182129
-0.09765625
-0.095214844
-0.09185791
-0.087280273
-0.082397461
-0.077819824
-0.074768066
-0.07232666
-0.070495605
-0.068969727
-0.067749023
-0.067138672
-0.067138672
-0.067749023
-0.069580078
-0.071411133
-0.073852539
-0.076599121
-0.079650879
-0.083312988
-0.087280273
-0.091552734
-0.095825195
-0.099182129
-0.10131836
-0.10253906
-0.10284424
-0.10223389
-0.10101318
-0.09979248
-0.098571777
-0.097961426
-0.09765625
-0.098266602
-0.099182129
-0.10009766
-0.10070801
-0.10070801
-0.09979248
-0.098571777
-0.09765625
-0.096435547
-0.095825195
-0.094909668
-0.094299316
-0.093078613
-0.091247559
-0.089111328
-0.086669922
-0.08392334
-0.081787109
-0.079650879
-0.078125
-0.076904297
-0.076293945
-0.076293945
-0.076599121
-0.077514648
-0.078735352
-0.079956055
-0.081176758
-0.082092285
-0.083007812
-0.083618164
-0.08392334
-0.084228516
-0.084533691
-0.084838867
-0.085144043
-0.085449219
-0.085144043
-0.084838867
-0.084228516
-0.083618164
-0.082702637
-0.082092285
-0.081481934
-0.081176758
-0.080871582
-0.081176758
-0.081481934
-0.081787109
-0.082397461
-0.082397461
-0.082092285
-0.081176758
-0.079345703
-0.076599121
-0.073242188
-0.068969727
-0.064086914
-0.057983398
-0.051574707
-0.045471191
-0.040893555
-0.037841797
-0.036010742
-0.035095215
-0.033874512
-0.03326416
-0.032653809
-0.032958984
-0.033569336
-0.034484863
-0.035400391
-0.036315918
-0.037231445
-0.038452148
-0.039672852
-0.040588379
-0.04119873
-0.041503906
-0.04119873
-0.040283203
-0.038757324
-0.036621094
-0.034484863
-0.032348633
-0.030517578
-0.029602051
-0.028991699
-0.029602051
-0.03112793
-0.033569336
-0.036315918
-0.038757324
-0.040893555
-0.042724609
-0.044555664
-0.046081543
-0.04699707
-0.047607422
-0.047607422
-0.047302246
-0.046691895
-0.045776367
-0.044555664
-0.043029785
-0.041503906
-0.039978027
-0.038757324
-0.038146973
-0.038146973
-0.038757324
-0.040283203
-0.042419434
-0.045776367
-0.049743652
-0.054626465
-0.060119629
-0.065612793
-0.071105957
-0.076599121
-0.081787109
-0.086364746
-0.090637207
-0.094299316
-0.09765625
-0.10040283
-0.10314941
-0.10528564
-0.10650635
-0.10650635
-0.105896
-0.10437012
-0.10284424
-0.10101318
-0.099487305
-0.098266602
-0.097045898
-0.096130371
-0.094909668
-0.093994141
-0.093383789
-0.093078613
-0.093688965
-0.094604492
-0.096435547
-0.098266602
-0.10040283
-0.10223389
-0.10406494
-0.10620117
-0.10803223
-0.10955811
-0.11077881
-0.11199951
-0.11291504
-0.11352539
-0.11352539
-0.11291504
-0.11138916
-0.10955811
-0.1071167
-0.10437012
-0.10223389
-0.10070801
-0.09979248
-0.09979248
-0.10009766
-0.10101318
-0.10223389
-0.10375977
-0.10498047
-0.10650635
-0.1083374
-0.11016846
-0.11260986
-0.11474609
-0.11688232
-0.11810303
-0.1184082
-0.11749268
-0.1159668
-0.11413574
-0.11199951
-0.11016846
-0.10803223
-0.105896
-0.10345459
-0.10101318
-0.098571777
-0.096435547
-0.094909668
-0.094299316
-0.094299316
-0.094909668
-0.095214844
-0.09552002
-0.09552002
-0.094909668
-0.094299316
-0.093994141
-0.093994141
-0.093688965
-0.093688965
-0.093383789
-0.093078613
-0.092773438
-0.092773438
-0.092773438
-0.092773438
-0.093383789
-0.094604492
-0.096740723
-0.09979248
-0.10437012
-0.10986328
-0.1159668
-0.12207031
-0.12756348
-0.13275146
-0.1373291
-0.14099121
-0.14434814
-0.1473999
-0.15014648
-0.15289307
-0.15441895
-0.15441895
-0.15106201
-0.14434814
-0.13336182
-0.11932373
-0.10284424
-0.08392334
-0.063171387
-0.040283203
-0.014953613
0.012512207
0.041809082
0.072631836
0.10498047
0.1373291
0.16906738
0.19805908
0.22338867
0.2432251
0.25756836
0.26519775
0.26641846
0.26062012
0.24810791
0.22857666
0.20263672
0.17059326
0.13336182
0.091247559
0.045776367
-0.0018310547
-0.05065918
-0.099487305
-0.14678955
-0.19165039
-0.23223877
-0.26794434
-0.29785156
-0.32165527
-0.33935547
-0.35186768
-0.35888672
-0.3616333
-0.35949707
-0.35308838
-0.34332275
-0.3302002
-0.31494141
-0.29785156
-0.28015137
-0.262146
-0.24475098
-0.22857666
-0.21331787
-0.19958496
-0.18676758
-0.1751709
-0.1651001
-0.15625
-0.14892578
-0.14312744
-0.13793945
-0.13336182
-0.12908936
-0.12542725
-0.12207031
-0.11901855
-0.11566162
-0.11199951
-0.10772705
-0.10345459
-0.09979248
-0.096740723
-0.094299316
-0.091552734
-0.089111328
-0.086975098
-0.085449219
-0.084228516
-0.08392334
-0.08392334
-0.084533691
-0.08605957
-0.087890625
-0.090026855
-0.092468262
-0.094604492
-0.096740723
-0.098266602
-0.099487305
-0.09979248
-0.099487305
-0.098876953
-0.097961426
-0.097045898
-0.095825195
-0.094299316
-0.092468262
-0.090942383
-0.08972168
-0.088806152
-0.088500977
-0.088195801
-0.088500977
-0.088806152
-0.088806152
-0.088806152
-0.088195801
-0.087280273
-0.08605957
-0.085449219
-0.085754395
-0.086669922
-0.087890625
-0.089111328
-0.090332031
-0.091247559
-0.092468262
-0.093383789
-0.094604492
-0.096130371
-0.09765625
-0.099487305
-0.10131836
-0.10284424
-0.10345459
-0.10345459
-0.10253906
-0.10070801
-0.098266602
-0.096130371
-0.094299316
-0.093383789
-0.093078613
-0.093078613
-0.092773438
-0.092773438
-0.093078613
-0.093994141
-0.096130371
-0.098571777
-0.10162354
-0.10498047
-0.1083374
-0.11169434
-0.11474609
-0.11688232
-0.11871338
-0.11962891
-0.12054443
-0.12115479
-0.12145996
-0.12115479
-0.11993408
-0.11779785
-0.11535645
-0.11291504
-0.11016846
-0.1071167
-0.10437012
-0.10162354
-0.099182129
-0.096740723
-0.094299316
-0.09185791
-0.089416504
-0.086975098
-0.084838867
-0.082702637
-0.080871582
-0.079040527
-0.077209473
-0.075683594
-0.074157715
-0.072937012
-0.072021484
-0.071411133
-0.071411133
-0.071716309
-0.072631836
-0.073242188
-0.073852539
-0.074462891
-0.074768066
-0.075378418
-0.076293945
-0.077819824
-0.078735352
-0.079040527
-0.078735352
-0.078125
-0.077209473
-0.076293945
-0.075683594
-0.075073242
-0.075073242
-0.075683594
-0.076599121
-0.078125
-0.079345703
-0.079956055
-0.08026123
-0.08026123
-0.079956055
-0.079345703
-0.078735352
-0.078125
-0.077819824
-0.077209473
-0.076599121
-0.07598877
-0.074768066
-0.072631836
-0.07019043
-0.066833496
-0.063476562
-0.059814453
-0.05645752
-0.054016113
-0.051879883
-0.05065918
-0.049743652
-0.048828125
-0.047912598
-0.046691895
-0.045471191
-0.043334961
-0.041503906
-0.039367676
-0.037841797
-0.036010742
-0.034179688
-0.032043457
-0.029296875
-0.026245117
-0.022583008
-0.018615723
-0.014648438
-0.010681152
-0.0067138672
-0.0030517578
0.00030517578
0.0039672852
0.0076293945
0.010986328
0.014343262
0.017089844
0.01953125
0.022277832
0.025024414
0.02746582
0.029602051
0.031433105
0.032653809
0.03326416
0.033874512
0.033874512
0.033874512
0.033874512
0.033874512
0.034484863
0.035095215
0.036010742
0.037231445
0.038757324
0.040588379
0.042419434
0.044555664
0.04699707
0.049743652
0.053100586
0.05645752
0.060119629
0.063171387
0.066223145
0.069274902
0.072021484
0.074768066
0.077209473
0.078735352
0.079650879
0.079650879
0.079345703
0.078125
0.076293945
0.074462891
0.072021484
0.069885254
0.067749023
0.065612793
0.064086914
0.062866211
0.061340332
0.059509277
0.057067871
0.054626465
0.052490234
0.050964355
0.050048828
0.049438477
0.048828125
0.048217773
0.046691895
0.044250488
0.04119873
0.037841797
0.034484863
0.030822754
0.026550293
0.02166748
0.016479492
0.011291504
0.0064086914
0.0015258789
-0.0033569336
-0.0079345703
-0.012207031
-0.016784668
-0.021057129
-0.02532959
-0.029296875
-0.032958984
-0.036315918
-0.0390625
-0.04119873
-0.043029785
-0.04486084
-0.046386719
-0.047607422
-0.048522949
-0.049438477
-0.05065918
-0.052185059
-0.053100586
-0.054016113
-0.054321289
-0.054321289
-0.054016113
-0.054016113
-0.054016113
-0.054321289
-0.054931641
-0.056152344
-0.057678223
-0.059509277
-0.061950684
-0.06439209
-0.067138672
-0.069580078
-0.071716309
-0.073852539
-0.07598877
-0.077819824
-0.079345703
-0.08026123
-0.080871582
-0.080566406
-0.079956055
-0.079040527
-0.077514648
-0.075683594
-0.073547363
-0.071411133
-0.068969727
-0.066833496
-0.065307617
-0.063781738
-0.063171387
-0.062561035
-0.062561035
-0.062866211
-0.063781738
-0.065307617
-0.067443848
-0.07019043
-0.072631836
-0.074462891
-0.076293945
-0.078430176
-0.080871582
-0.083618164
-0.085754395
-0.087280273
-0.088195801
-0.088195801
-0.087890625
-0.086975098
-0.085754395
-0.08392334
-0.082092285
-0.080566406
-0.079345703
-0.079040527
-0.079040527
-0.079345703
-0.079956055
-0.080566406
-0.081481934
-0.082702637
-0.084838867
-0.087280273
-0.090332031
-0.093078613
-0.095825195
-0.097961426
-0.09979248
-0.10131836
-0.10284424
-0.10345459
-0.10345459
-0.10253906
-0.10101318
-0.098571777
-0.095825195
-0.092163086
-0.088500977
-0.084533691
-0.080871582
-0.077819824
-0.075378418
-0.074157715
-0.073852539
-0.073852539
-0.074157715
-0.074157715
-0.074462891
-0.075073242
-0.07598877
-0.077514648
-0.079345703
-0.081176758
-0.082397461
-0.083312988
-0.083312988
-0.083007812
-0.082397461
-0.081481934
-0.08026123
-0.078735352
-0.076599121
-0.074157715
-0.071716309
-0.069274902
-0.067749023
-0.067138672
-0.067138672
-0.067443848
-0.068054199
-0.069580078
-0.071411133
-0.073547363
-0.076293945
-0.079040527
-0.082397461
-0.08605957
-0.089416504
-0.092468262
-0.095214844
-0.097351074
-0.098876953
-0.099487305
-0.098876953
-0.097351074
-0.095214844
-0.092773438
-0.090332031
-0.087890625
-0.085449219
-0.083618164
-0.081787109
-0.080566406
-0.079650879
-0.079345703
-0.079650879
-0.079956055
-0.080566406
-0.081481934
-0.082702637
-0.084228516
-0.08605957
-0.087890625
-0.089416504
-0.090637207
-0.091247559
-0.091552734
-0.090942383
-0.089416504
-0.087585449
-0.085449219
-0.083618164
-0.082092285
-0.080566406
-0.079345703
-0.078430176
-0.077819824
-0.077514648
-0.077209473
-0.076904297
-0.076293945
-0.075378418
-0.074768066
-0.074157715
-0.074157715
-0.074157715
-0.074157715
-0.073852539
-0.073547363
-0.073547363
-0.073852539
-0.074462891
-0.075683594
-0.077514648
-0.079956055
-0.082397461
-0.085144043
-0.087890625
-0.090637207
-0.093078613
-0.09552002
-0.097961426
-0.09979248
-0.10070801
-0.10131836
-0.10162354
-0.10131836
-0.10009766
-0.098266602
-0.095825195
-0.092773438
-0.089416504
-0.08605957
-0.083312988
-0.081176758
-0.079345703
-0.077819824
-0.076904297
-0.076293945
-0.076293945
-0.076599121
-0.077514648
-0.078735352
-0.08026123
-0.081787109
-0.083007812
-0.083618164
-0.084533691
-0.085754395
-0.087585449
-0.089416504
-0.091552734
-0.093078613
-0.094299316
-0.095214844
-0.095825195
-0.096740723
-0.097351074
-0.098266602
-0.099487305
-0.10040283
-0.10131836
-0.10162354
-0.10192871
-0.10131836
-0.10040283
-0.099182129
-0.097961426
-0.096740723
-0.095825195
-0.095214844
-0.094604492
-0.093994141
-0.093688965
-0.093688965
-0.093994141
-0.094604492
-0.095214844
-0.096130371
-0.096740723
-0.097961426
-0.098876953
-0.10040283
-0.10223389
-0.10375977
-0.10467529
-0.10498047
-0.10528564
-0.10559082
-0.105896
-0.10620117
-0.10650635
-0.10620117
-0.10559082
-0.10467529
-0.10375977
-0.10253906
-0.10101318
-0.099182129
-0.09765625
-0.096130371
-0.094604492
-0.093078613
-0.091247559
-0.089416504
-0.087280273
-0.084838867
-0.082397461
-0.08026123
-0.078430176
-0.076904297
-0.075683594
-0.074768066
-0.074462891
-0.074157715
-0.074157715
-0.073852539
-0.073852539
-0.073852539
-0.074157715
-0.074768066
-0.075683594
-0.077209473
-0.078430176
-0.079345703
-0.079956055
-0.079956055
-0.08026123
-0.080871582
-0.082092285
-0.083618164
-0.085449219
-0.087280273
-0.088500977
-0.089416504
-0.089111328
-0.088500977
-0.087280273
-0.086364746
-0.085754395
-0.085144043
-0.084533691
-0.083618164
-0.082702637
-0.081481934
-0.08026123
-0.079345703
-0.078430176
-0.077514648
-0.076599121
-0.075073242
-0.073852539
-0.07232666
-0.070495605
-0.068664551
-0.06652832
-0.064086914
-0.061035156
-0.057678223
-0.054321289
-0.050964355
-0.047302246
-0.043945312
-0.040588379
-0.037536621
-0.034484863
-0.032348633
-0.030517578
-0.029907227
-0.030212402
-0.03112793
-0.032958984
-0.035095215
-0.037841797
-0.040283203
-0.042419434
-0.04486084
-0.047607422
-0.050048828
-0.052185059
-0.054321289
-0.055541992
-0.056762695
-0.057373047
-0.057678223
-0.057067871
-0.055847168
-0.054321289
-0.053100586
-0.052490234
-0.05279541
-0.053100586
-0.053710938
-0.054016113
-0.054321289
-0.055236816
-0.056762695
-0.059509277
-0.062866211
-0.06652832
-0.071105957
-0.07598877
-0.081176758
-0.086364746
-0.091247559
-0.096130371
-0.10070801
-0.10498047
-0.10894775
-0.11322021
-0.11749268
-0.12145996
-0.12481689
-0.12756348
-0.12908936
-0.13000488
-0.12969971
-0.12878418
-0.12756348
-0.1260376
-0.12481689
-0.12390137
-0.12268066
-0.12176514
-0.12054443
-0.11901855
-0.1171875
-0.11535645
-0.11352539
-0.11138916
-0.10955811
-0.10803223
-0.10681152
-0.105896
-0.10498047
-0.10406494
-0.10345459
-0.10284424
-0.10223389
-0.10131836
-0.10040283
-0.10009766
-0.09979248
-0.10040283
-0.10131836
-0.10253906
-0.10375977
-0.10498047
-0.10650635
-0.10803223
-0.11016846
-0.11260986
-0.11505127
-0.11688232
-0.11779785
-0.11810303
-0.11810303
-0.11749268
-0.11688232
-0.11566162
-0.11383057
-0.11169434
-0.10925293
-0.10650635
-0.10375977
-0.10162354
-0.10040283
-0.10040283
-0.10162354
-0.10314941
-0.10467529
-0.10681152
-0.10925293
-0.11199951
-0.11535645
-0.11932373
-0.12329102
-0.1272583
-0.13092041
-0.13397217
-0.1361084
-0.13763428
-0.13793945
-0.13763428
-0.13641357
-0.13458252
-0.13214111
-0.13000488
-0.12786865
-0.1260376
-0.12420654
-0.12268066
-0.12054443
-0.1184082
-0.1159668
-0.11352539
-0.11169434
-0.11016846
-0.10955811
-0.10955811
-0.10986328
-0.11108398
-0.11260986
-0.11474609
-0.1171875
-0.11993408
-0.12329102
-0.12695312
-0.13122559
-0.13580322
-0.14007568
-0.14434814
-0.14801025
-0.15075684
-0.15167236
-0.15075684
-0.14770508
-0.14221191
-0.13427734
-0.12390137
-0.11047363
-0.093994141
-0.075073242
-0.053100586
-0.028381348
-0.00091552734
0.029296875
0.061035156
0.093688965
0.12573242
0.15655518
0.18432617
0.20843506
0.22766113
0.24108887
0.24841309
0.24993896
0.2456665
0.23498535
0.21820068
0.19470215
0.1651001
0.12969971
0.08972168
0.046386719
0.00061035156
-0.046081543
-0.092468262
-0.1373291
-0.18005371
-0.21911621
-0.25390625
-0.2835083
-0.30761719
-0.32592773
-0.33874512
-0.34637451
-0.34942627
-0.34820557
-0.34393311
-0.33630371
-0.32623291
-0.31433105
-0.30090332
-0.28656006
-0.27160645
-0.25634766
-0.24108887
-0.22613525
-0.21118164
-0.1965332
-0.18218994
-0.16845703
-0.15563965
-0.14373779
-0.13305664
-0.12329102
-0.11474609
-0.10742188
-0.10040283
-0.094299316
-0.088806152
-0.084228516
-0.080871582
-0.078735352
-0.078125
-0.079040527
-0.081176758
-0.08392334
-0.086975098
-0.090332031
-0.093994141
-0.097351074
-0.10101318
-0.10437012
-0.1071167
-0.10925293
-0.11077881
-0.11169434
-0.11199951
-0.11138916
-0.10986328
-0.10803223
-0.10559082
-0.10284424
-0.09979248
-0.097045898
-0.093994141
-0.090942383
-0.087890625
-0.085144043
-0.083007812
-0.081481934
-0.080566406
-0.079650879
-0.078735352
-0.077819824
-0.076904297
-0.076293945
-0.076293945
-0.076293945
-0.076904297
-0.077514648
-0.078125
-0.078430176
-0.078430176
-0.077819824
-0.077209473
-0.07598877
-0.074768066
-0.074157715
-0.074462891
-0.075378418
-0.076904297
-0.078430176
-0.079650879
-0.080871582
-0.081481934
-0.081787109
-0.081787109
-0.082092285
-0.082092285
-0.082092285
-0.082092285
-0.082092285
-0.081787109
-0.081481934
-0.080871582
-0.079956055
-0.078125
-0.07598877
-0.073242188
-0.070495605
-0.068054199
-0.066223145
-0.065002441
-0.064086914
-0.063781738
-0.063476562
-0.063476562
-0.064086914
-0.065002441
-0.06652832
-0.067749023
-0.068664551
-0.069274902
-0.07019043
-0.071411133
-0.072937012
-0.074768066
-0.076599121
-0.078430176
-0.079956055
-0.080871582
-0.081176758
-0.080566406
-0.079345703
-0.077514648
-0.07598877
-0.073852539
-0.071716309
-0.068969727
-0.066223145
-0.063476562
-0.06072998
-0.057983398
-0.055541992
-0.053100586
-0.050964355
-0.048828125
-0.04699707
-0.045166016
-0.043640137
-0.042419434
-0.041809082
-0.042114258
-0.043029785
-0.043945312
-0.045166016
-0.045776367
-0.045776367
-0.045471191
-0.04486084
-0.044555664
-0.04486084
-0.045776367
-0.04699707
-0.048217773
-0.049133301
-0.049438477
-0.049438477
-0.049133301
-0.048522949
-0.047912598
-0.04699707
-0.045776367
-0.044250488
-0.042724609
-0.040893555
-0.038757324
-0.036621094
-0.034484863
-0.032958984
-0.032348633
-0.032653809
-0.033569336
-0.034790039
-0.035705566
-0.036621094
-0.037841797
-0.0390625
-0.040588379
-0.042419434
-0.044250488
-0.045471191
-0.046081543
-0.045776367
-0.044250488
-0.042114258
-0.039367676
-0.036010742
-0.032348633
-0.027770996
-0.022888184
-0.018005371
-0.013122559
-0.0088500977
-0.0048828125
-0.0018310547
0.00061035156
0.0021362305
0.0030517578
0.0033569336
0.0030517578
0.002746582
0.0018310547
0.00061035156
-0.00091552734
-0.0021362305
-0.0030517578
-0.0036621094
-0.0033569336
-0.0024414062
-0.0012207031
0.00030517578
0.0021362305
0.0048828125
0.0076293945
0.011291504
0.015563965
0.020141602
0.025024414
0.030212402
0.034790039
0.038757324
0.042114258
0.04486084
0.046691895
0.048217773
0.049133301
0.048828125
0.047912598
0.046386719
0.04486084
0.043334961
0.042114258
0.04119873
0.04119873
0.042114258
0.043945312
0.046386719
0.048828125
0.050964355
0.051879883
0.051879883
0.051879883
0.051879883
0.052490234
0.053405762
0.053710938
0.053710938
0.05279541
0.050964355
0.048217773
0.044555664
0.040283203
0.036315918
0.032958984
0.030212402
0.02746582
0.025024414
0.022888184
0.021057129
0.020141602
0.01953125
0.019226074
0.018920898
0.018310547
0.01739502
0.016479492
0.014953613
0.013122559
0.010986328
0.0085449219
0.0057983398
0.0030517578
0
-0.0036621094
-0.0073242188
-0.01159668
-0.016174316
-0.021362305
-0.026550293
-0.032043457
-0.037231445
-0.042724609
-0.048217773
-0.053710938
-0.058898926
-0.063781738
-0.069274902
-0.075073242
-0.081176758
-0.087280273
-0.093078613
-0.097045898
-0.099487305
-0.10101318
-0.10192871
-0.10284424
-0.10437012
-0.10559082
-0.1071167
-0.10803223
-0.10864258
-0.10894775
-0.10864258
-0.10803223
-0.10742188
-0.10650635
-0.10498047
-0.10375977
-0.10223389
-0.10101318
-0.10070801
-0.10162354
-0.10345459
-0.10620117
-0.10894775
-0.11169434
-0.11413574
-0.1159668
-0.1171875
-0.11779785
-0.11871338
-0.12084961
-0.12390137
-0.12756348
-0.13183594
-0.13519287
-0.13824463
-0.14068604
-0.14251709
-0.14404297
-0.14526367
-0.14648438
-0.1473999
-0.14801025
-0.14801025
-0.1473999
-0.1461792
-0.14434814
-0.14190674
-0.13946533
-0.13702393
-0.13427734
-0.13214111
-0.12969971
-0.12786865
-0.1260376
-0.12481689
-0.12359619
-0.12237549
-0.12176514
-0.12176514
-0.12268066
-0.12420654
-0.1260376
-0.12786865
-0.13000488
-0.13153076
-0.13275146
-0.13366699
-0.13397217
-0.13366699
-0.13275146
-0.13153076
-0.12969971
-0.12817383
-0.12695312
-0.12634277
-0.12542725
-0.12481689
-0.12390137
-0.12268066
-0.12237549
-0.12237549
-0.12298584
-0.12420654
-0.12542725
-0.12664795
-0.12756348
-0.128479
-0.12969971
-0.13092041
-0.13244629
-0.13366699
-0.13427734
-0.13458252
-0.13458252
-0.13458252
-0.13397217
-0.13244629
-0.13092041
-0.12908936
-0.1272583
-0.12542725
-0.12390137
-0.12298584
-0.12268066
-0.12298584
-0.12359619
-0.12359619
-0.12390137
-0.12420654
-0.12481689
-0.12542725
-0.12664795
-0.12786865
-0.12969971
-0.13092041
-0.13183594
-0.13214111
-0.13183594
-0.13183594
-0.13153076
-0.13153076
-0.13122559
-0.13061523
-0.12969971
-0.12878418
-0.12756348
-0.12695312
-0.12634277
-0.1260376
-0.1260376
-0.12573242
-0.12542725
-0.12542725
-0.12573242
-0.12634277
-0.1272583
-0.12908936
-0.13153076
-0.13366699
-0.13580322
-0.1373291
-0.13824463
-0.13885498
-0.13885498
-0.13885498
-0.13916016
-0.13916016
-0.13946533
-0.13977051
-0.13916016
-0.13763428
-0.13519287
-0.13214111
-0.12878418
-0.12512207
-0.12176514
-0.11901855
-0.11627197
-0.11413574
-0.11199951
-0.10955811
-0.10772705
-0.10620117
-0.10559082
-0.10620117
-0.10772705
-0.10986328
-0.11230469
-0.11444092
-0.11688232
-0.11901855
-0.12115479
-0.12298584
-0.12512207
-0.12695312
-0.128479
-0.12969971
-0.13031006
-0.13092041
-0.13122559
-0.13153076
-0.13122559
-0.13031006
-0.12878418
-0.12664795
-0.12329102
-0.11932373
-0.11505127
-0.11108398
-0.1083374
-0.10681152
-0.10681152
-0.10803223
-0.10955811
-0.11108398
-0.11291504
-0.11474609
-0.1171875
-0.12023926
-0.12481689
-0.13000488
-0.13580322
-0.14160156
-0.1473999
-0.15167236
-0.15472412
-0.15625
-0.15655518
-0.15594482
-0.1550293
-0.15350342
-0.15136719
-0.14801025
-0.14434814
-0.14007568
-0.13580322
-0.13183594
-0.128479
-0.12542725
-0.12298584
-0.12115479
-0.11962891
-0.11871338
-0.1184082
-0.11871338
-0.11993408
-0.12207031
-0.12481689
-0.12756348
-0.13000488
-0.13153076
-0.13275146
-0.13366699
-0.13458252
-0.13549805
-0.1361084
-0.13671875
-0.1373291
-0.13763428
-0.1373291
-0.13702393
-0.13671875
-0.13671875
-0.13671875
-0.13641357
-0.13549805
-0.13427734
-0.13305664
-0.13153076
-0.12969971
-0.12817383
-0.12664795
-0.12573242
-0.12481689
-0.12420654
-0.12359619
-0.12268066
-0.12176514
-0.12054443
-0.11901855
-0.11688232
-0.11474609
-0.11291504
-0.11230469
-0.11260986
-0.11383057
-0.11535645
-0.11688232
-0.11871338
-0.11993408
-0.12115479
-0.12237549
-0.12329102
-0.12451172
-0.1260376
-0.12817383
-0.13031006
-0.13214111
-0.13366699
-0.1348877
-0.13549805
-0.13580322
-0.13580322
-0.13549805
-0.1348877
-0.13366699
-0.13275146
-0.13122559
-0.12939453
-0.12817383
-0.12695312
-0.1260376
-0.12512207
-0.12451172
-0.12359619
-0.12298584
-0.12268066
-0.12237549
-0.12207031
-0.12145996
-0.12115479
-0.12054443
-0.11993408
-0.11962891
-0.11962891
-0.11962891
-0.11932373
-0.11871338
-0.11810303
-0.1171875
-0.11627197
-0.11535645
-0.11474609
-0.11413574
-0.11352539
-0.11322021
-0.11230469
-0.11108398
-0.10955811
-0.10803223
-0.10650635
-0.10559082
-0.10498047
-0.10498047
-0.10528564
-0.10559082
-0.105896
-0.10620117
-0.105896
-0.10528564
-0.10467529
-0.10406494
-0.10375977
-0.10284424
-0.10192871
-0.10040283
-0.098571777
-0.096130371
-0.093078613
-0.089416504
-0.085449219
-0.080871582
-0.076293945
-0.071716309
-0.067443848
-0.063476562
-0.060119629
-0.057373047
-0.055541992
-0.054321289
-0.053405762
-0.053100586
-0.05279541
-0.05279541
-0.053100586
-0.054016113
-0.055541992
-0.057373047
-0.058898926
-0.060119629
-0.06072998
-0.061340332
-0.061645508
-0.061645508
-0.061645508
-0.061035156
-0.060424805
-0.059814453
-0.058898926
-0.057983398
-0.057067871
-0.056762695
-0.056762695
-0.057067871
-0.057373047
-0.057067871
-0.056152344
-0.055236816
-0.054931641
-0.055236816
-0.057067871
-0.059814453
-0.063476562
-0.067749023
-0.072631836
-0.078125
-0.08392334
-0.090026855
-0.096130371
-0.10223389
-0.10772705
-0.11260986
-0.11688232
-0.12054443
-0.12390137
-0.12664795
-0.12908936
-0.13061523
-0.13183594
-0.13214111
-0.13214111
-0.13122559
-0.12969971
-0.1272583
-0.12481689
-0.12207031
-0.11962891
-0.1171875
-0.11505127
-0.11322021
-0.11108398
-0.10955811
-0.10894775
-0.10864258
-0.10864258
-0.10803223
-0.1071167
-0.10559082
-0.10437012
-0.10345459
-0.10345459
-0.10406494
-0.10528564
-0.1071167
-0.10925293
-0.11199951
-0.11505127
-0.11871338
-0.12207031
-0.12512207
-0.12817383
-0.13092041
-0.13305664
-0.13519287
-0.13671875
-0.13763428
-0.13824463
-0.13824463
-0.1373291
-0.1361084
-0.13458252
-0.13305664
-0.13092041
-0.12939453
-0.12756348
-0.12573242
-0.12420654
-0.12268066
-0.12084961
-0.11901855
-0.1171875
-0.11566162
-0.11474609
-0.11444092
-0.11505127
-0.1159668
-0.1171875
-0.11810303
-0.11901855
-0.11932373
-0.11932373
-0.11932373
-0.11962891
-0.11993408
-0.12023926
-0.12084961
-0.12115479
-0.12207031
-0.12298584
-0.12420654
-0.12542725
-0.12664795
-0.12786865
-0.128479
-0.12908936
-0.12908936
-0.12939453
-0.12939453
-0.12939453
-0.12908936
-0.128479
-0.12756348
-0.12695312
-0.1260376
-0.12481689
-0.12329102
-0.12145996
-0.11901855
-0.1159668
-0.11291504
-0.11016846
-0.10803223
-0.10650635
-0.105896
-0.10620117
-0.10681152
-0.1083374
-0.11016846
-0.11291504
-0.11657715
-0.12115479
-0.12634277
-0.13183594
-0.1373291
-0.14221191
-0.14648438
-0.14923096
-0.15106201
-0.15136719
-0.15075684
-0.14862061
-0.14465332
-0.13824463
-0.12969971
-0.1184082
-0.10375977
-0.08605957
-0.065307617
-0.042114258
-0.017089844
0.0094604492
0.037841797
0.067443848
0.09765625
0.12786865
0.15686035
0.18341064
0.206604
0.22460938
0.23742676
0.24414062
0.24414062
0.23712158
0.22277832
0.20141602
0.17303467
0.1385498
0.098571777
0.054321289
0.0064086914
-0.043029785
-0.093078613
-0.14190674
-0.18829346
-0.23101807
-0.26885986
-0.30151367
-0.32836914
-0.34881592
-0.362854
-0.37078857
-0.37322998
-0.3704834
-0.36346436
-0.35308838
-0.340271
-0.32592773
-0.31066895
-0.29449463
-0.27801514
-0.262146
-0.24658203
-0.23193359
-0.21789551
-0.20507812
-0.19317627
-0.18218994
-0.17211914
-0.16235352
-0.15319824
-0.14434814
-0.1361084
-0.12786865
-0.12023926
-0.11230469
-0.10498047
-0.097961426
-0.092468262
-0.088806152
-0.087280273
-0.087585449
-0.088806152
-0.090332031
-0.092163086
-0.094299316
-0.096740723
-0.09979248
-0.10375977
-0.10803223
-0.11260986
-0.1171875
-0.12145996
-0.12512207
-0.1272583
-0.128479
-0.128479
-0.1272583
-0.12542725
-0.12329102
-0.12023926
-0.11657715
-0.11260986
-0.10803223
-0.10345459
-0.099182129
-0.095214844
-0.09185791
-0.08972168
-0.087890625
-0.086975098
-0.086669922
-0.086364746
-0.08605957
-0.08605957
-0.08605957
-0.086364746
-0.086669922
-0.087585449
-0.088806152
-0.090332031
-0.092163086
-0.093994141
-0.095214844
-0.096130371
-0.096740723
-0.097045898
-0.097045898
-0.096740723
-0.095825195
-0.094299316
-0.092163086
-0.089416504
-0.086669922
-0.08392334
-0.082092285
-0.080566406
-0.079650879
-0.079040527
-0.078735352
-0.078125
-0.077514648
-0.077514648
-0.077819824
-0.078735352
-0.080566406
-0.083007812
-0.085144043
-0.087280273
-0.088806152
-0.08972168
-0.090026855
-0.089416504
-0.088195801
-0.086669922
-0.085449219
-0.084533691
-0.083618164
-0.082702637
-0.081787109
-0.081176758
-0.080871582
-0.081176758
-0.081481934
-0.082397461
-0.083312988
-0.084533691
-0.085754395
-0.087280273
-0.088500977
-0.090026855
-0.091247559
-0.092163086
-0.092468262
-0.092163086
-0.090637207
-0.088500977
-0.08605957
-0.083618164
-0.081787109
-0.08026123
-0.079345703
-0.078430176
-0.077514648
-0.076599121
-0.07598877
-0.075378418
-0.074768066
-0.073852539
-0.072937012
-0.072021484
-0.071105957
-0.070495605
-0.069885254
-0.069274902
-0.068359375
-0.067749023
-0.06652832
-0.065307617
-0.063476562
-0.061340332
-0.058288574
-0.055541992
-0.053405762
-0.052185059
-0.051879883
-0.052185059
-0.05279541
-0.053710938
-0.054626465
-0.055236816
-0.055847168
-0.056152344
-0.056762695
-0.057678223
-0.05859375
-0.060119629
-0.061340332
-0.062561035
-0.063476562
-0.063781738
-0.063781738
-0.062866211
-0.061340332
-0.058898926
-0.056152344
-0.053405762
-0.051574707
-0.050354004
-0.049438477
-0.048217773
-0.047302246
-0.046081543
-0.045166016
-0.044555664
-0.044250488
-0.044555664
-0.045166016
-0.045776367
-0.046386719
-0.04699707
-0.046691895
-0.046081543
-0.04486084
-0.043334961
-0.041809082
-0.039978027
-0.038146973
-0.036010742
-0.033874512
-0.031433105
-0.028381348
-0.025634766
-0.022583008
-0.01953125
-0.016479492
-0.013427734
-0.010681152
-0.0079345703
-0.0051879883
-0.0024414062
0
0.0024414062
0.0045776367
0.0061035156
0.007019043
0.0076293945
0.0079345703
0.0079345703
0.0076293945
0.007019043
0.0064086914
0.0061035156
0.0054931641
0.0048828125
0.0045776367
0.0048828125
0.0054931641
0.0064086914
0.0082397461
0.010681152
0.01373291
0.01739502
0.021362305
0.025634766
0.029907227
0.033874512
0.037536621
0.040588379
0.043334961
0.045471191
0.047302246
0.048217773
0.048828125
0.048217773
0.04699707
0.04486084
0.042114258
0.039672852
0.037536621
0.035705566
0.034484863
0.032958984
0.031738281
0.030517578
0.029907227
0.029907227
0.030822754
0.03112793
0.030517578
0.028991699
0.026550293
0.024108887
0.022277832
0.020446777
0.019226074
0.018005371
0.016479492
0.014343262
0.010681152
0.0057983398
-0.00061035156
-0.0073242188
-0.014038086
-0.020751953
-0.027160645
-0.032958984
-0.038452148
-0.043945312
-0.049438477
-0.054931641
-0.060424805
-0.065917969
-0.070800781
-0.075378418
-0.079345703
-0.083312988
-0.086975098
-0.090332031
-0.092773438
-0.094604492
-0.096130371
-0.09765625
-0.099182129
-0.10131836
-0.10345459
-0.10559082
-0.10772705
-0.10986328
-0.11230469
-0.11444092
-0.11688232
-0.11901855
-0.12115479
-0.12268066
-0.12390137
-0.12481689
-0.12512207
-0.12481689
-0.12420654
-0.12359619
-0.12298584
-0.12237549
-0.12176514
-0.12115479
-0.12084961
-0.12054443
-0.12054443
-0.12084961
-0.12084961
-0.12084961
-0.12084961
-0.12084961
-0.12145996
-0.12237549
-0.12390137
-0.12542725
-0.1272583
-0.12908936
-0.13122559
-0.13275146
-0.13458252
-0.13641357
-0.13763428
-0.13916016
-0.14007568
-0.14038086
-0.14007568
-0.13885498
-0.13702393
-0.13458252
-0.13183594
-0.12908936
-0.12664795
-0.12481689
-0.12390137
-0.12359619
-0.12298584
-0.12268066
-0.12207031
-0.12207031
-0.12298584
-0.12481689
-0.1272583
-0.13000488
-0.13305664
-0.13549805
-0.13793945
-0.13977051
-0.14068604
-0.14129639
-0.14068604
-0.13946533
-0.1373291
-0.1348877
-0.13183594
-0.12878418
-0.1260376
-0.12329102
-0.12115479
-0.11932373
-0.11779785
-0.11657715
-0.11505127
-0.11383057
-0.11291504
-0.11230469
-0.11230469
-0.11291504
-0.11444092
-0.11657715
-0.11871338
-0.12084961
-0.12237549
-0.12329102
-0.12329102
-0.12268066
-0.12176514
-0.12084961
-0.11962891
-0.11901855
-0.11871338
-0.1184082
-0.11779785
-0.11657715
-0.11474609
-0.11260986
-0.11077881
-0.10894775
-0.10772705
-0.10650635
-0.10559082
-0.10467529
-0.10406494
-0.10345459
-0.10253906
-0.10223389
-0.10192871
-0.10162354
-0.10162354
-0.10101318
-0.10040283
-0.099487305
-0.098571777
-0.098266602
-0.098266602
-0.098876953
-0.099487305
-0.10009766
-0.10009766
-0.09979248
-0.099487305
-0.10009766
-0.10101318
-0.10253906
-0.10437012
-0.10650635
-0.10894775
-0.11047363
-0.11169434
-0.11199951
-0.11169434
-0.11108398
-0.11077881
-0.11016846
-0.10955811
-0.10955811
-0.10925293
-0.10925293
-0.10894775
-0.10864258
-0.1083374
-0.1083374
-0.10864258
-0.10894775
-0.10894775
-0.10925293
-0.10955811
-0.11016846
-0.11077881
-0.11138916
-0.11199951
-0.11230469
-0.11230469
-0.11138916
-0.11016846
-0.1083374
-0.10620117
-0.10437012
-0.10253906
-0.10070801
-0.099487305
-0.098266602
-0.096740723
-0.094909668
-0.093383789
-0.091552734
-0.090332031
-0.089416504
-0.089111328
-0.088806152
-0.088500977
-0.088806152
-0.089111328
-0.08972168
-0.090332031
-0.090637207
-0.090332031
-0.089416504
-0.088195801
-0.087280273
-0.087280273
-0.087890625
-0.089111328
-0.090332031
-0.091247559
-0.092163086
-0.093078613
-0.094604492
-0.096740723
-0.099182129
-0.10192871
-0.10498047
-0.10772705
-0.10986328
-0.11138916
-0.11199951
-0.11230469
-0.11199951
-0.11138916
-0.11047363
-0.10955811
-0.10864258
-0.10772705
-0.10650635
-0.10498047
-0.10284424
-0.10070801
-0.098571777
-0.096740723
-0.094909668
-0.093688965
-0.093688965
-0.094299316
-0.09552002
-0.096130371
-0.096435547
-0.096130371
-0.095825195
-0.096130371
-0.096130371
-0.096740723
-0.097045898
-0.097351074
-0.097961426
-0.098571777
-0.098876953
-0.099487305
-0.09979248
-0.09979248
-0.10009766
-0.10070801
-0.10131836
-0.10223389
-0.10284424
-0.10284424
-0.10223389
-0.10131836
-0.10009766
-0.099182129
-0.098571777
-0.09765625
-0.096740723
-0.095825195
-0.094604492
-0.093688965
-0.092773438
-0.09185791
-0.091247559
-0.090026855
-0.088500977
-0.086364746
-0.08392334
-0.081787109
-0.079956055
-0.078735352
-0.078430176
-0.078735352
-0.079650879
-0.081176758
-0.083007812
-0.084533691
-0.085754395
-0.087280273
-0.089111328
-0.091552734
-0.094299316
-0.097045898
-0.09979248
-0.10192871
-0.10406494
-0.105896
-0.10772705
-0.10864258
-0.10894775
-0.1083374
-0.10681152
-0.10437012
-0.10192871
-0.099182129
-0.096740723
-0.094299316
-0.092163086
-0.090026855
-0.088500977
-0.087890625
-0.087890625
-0.089111328
-0.091247559
-0.093383789
-0.095214844
-0.096740723
-0.097961426
-0.099182129
-0.10009766
-0.10131836
-0.10223389
-0.10345459
-0.10437012
-0.10467529
-0.10437012
-0.10314941
-0.10131836
-0.098876953
-0.095825195
-0.092163086
-0.088500977
-0.085144043
-0.082397461
-0.079956055
-0.077514648
-0.075378418
-0.073242188
-0.071411133
-0.069885254
-0.068664551
-0.068054199
-0.068054199
-0.068664551
-0.069274902
-0.069885254
-0.070800781
-0.071716309
-0.07232666
-0.073547363
-0.075073242
-0.076599121
-0.078735352
-0.080566406
-0.082397461
-0.084228516
-0.085449219
-0.086669922
-0.087585449
-0.088195801
-0.088500977
-0.088806152
-0.088806152
-0.088500977
-0.088195801
-0.087585449
-0.086669922
-0.085144043
-0.083007812
-0.080566406
-0.078125
-0.076293945
-0.074462891
-0.072021484
-0.069274902
-0.065917969
-0.062255859
-0.05859375
-0.054626465
-0.050354004
-0.046081543
-0.04119873
-0.036315918
-0.031738281
-0.02746582
-0.024108887
-0.021972656
-0.021362305
-0.02166748
-0.022583008
-0.024108887
-0.02532959
-0.026855469
-0.028076172
-0.029602051
-0.03112793
-0.03326416
-0.035095215
-0.03692627
-0.038146973
-0.038757324
-0.0390625
-0.038452148
-0.037841797
-0.036621094
-0.034790039
-0.032653809
-0.030212402
-0.027770996
-0.02532959
-0.023498535
-0.022277832
-0.021362305
-0.021057129
-0.021362305
-0.022277832
-0.023498535
-0.02532959
-0.02746582
-0.029296875
-0.031738281
-0.034484863
-0.037841797
-0.041809082
-0.046081543
-0.050964355
-0.055847168
-0.061035156
-0.06652832
-0.071716309
-0.076904297
-0.081787109
-0.08605957
-0.090026855
-0.093078613
-0.09552002
-0.096740723
-0.09765625
-0.09765625
-0.097351074
-0.096740723
-0.095825195
-0.094604492
-0.093383789
-0.092468262
-0.091247559
-0.090026855
-0.089111328
-0.088500977
-0.088195801
-0.088195801
-0.088806152
-0.089416504
-0.090332031
-0.091552734
-0.092468262
-0.093383789
-0.093688965
-0.093994141
-0.094299316
-0.094909668
-0.09552002
-0.096130371
-0.097045898
-0.097045898
-0.096740723
-0.095825195
-0.094909668
-0.093688965
-0.093078613
-0.092163086
-0.091552734
-0.090332031
-0.088806152
-0.087280273
-0.085754395
-0.085144043
-0.084533691
-0.08392334
-0.083007812
-0.082702637
-0.083007812
-0.08392334
-0.085449219
-0.087280273
-0.08972168
-0.092773438
-0.096130371
-0.099487305
-0.10253906
-0.10498047
-0.1071167
-0.10894775
-0.11047363
-0.11108398
-0.11138916
-0.11108398
-0.11016846
-0.10894775
-0.10772705
-0.10650635
-0.10528564
-0.10345459
-0.10131836
-0.098876953
-0.096130371
-0.093078613
-0.090332031
-0.087890625
-0.085754395
-0.084228516
-0.083618164
-0.083312988
-0.083618164
-0.08392334
-0.084228516
-0.084838867
-0.084838867
-0.084533691
-0.08392334
-0.083618164
-0.083618164
-0.08392334
-0.084533691
-0.085754395
-0.087280273
-0.088500977
-0.08972168
-0.090637207
-0.091552734
-0.092773438
-0.094299316
-0.095825195
-0.097961426
-0.10040283
-0.10284424
-0.10559082
-0.10803223
-0.11047363
-0.11352539
-0.11688232
-0.12023926
-0.12359619
-0.12695312
-0.13000488
-0.13275146
-0.13458252
-0.1348877
-0.13336182
-0.12969971
-0.12390137
-0.11627197
-0.1071167
-0.096740723
-0.08392334
-0.068359375
-0.050048828
-0.028686523
-0.0042724609
0.022583008
0.051574707
0.081787109
0.11291504
0.14434814
0.1751709
0.20385742
0.22979736
0.25146484
0.26824951
0.27923584
0.28320312
0.28015137
0.27008057
0.25299072
0.22918701
0.19958496
0.16448975
0.12390137
0.079345703
0.032043457
-0.016479492
-0.064697266
-0.11108398
-0.1550293
-0.19470215
-0.22979736
-0.25939941
-0.28381348
-0.3024292
-0.31616211
-0.32470703
-0.32867432
-0.32775879
-0.32348633
-0.31555176
-0.30548096
-0.29296875
-0.27923584
-0.26489258
-0.25024414
-0.2355957
-0.22094727
-0.20629883
-0.19134521
-0.17578125
-0.16082764
-0.1461792
-0.13275146
-0.12023926
-0.10894775
-0.099182129
-0.090332031
-0.082702637
-0.07598877
-0.070495605
-0.06652832
-0.064086914
-0.062866211
-0.063171387
-0.06439209
-0.066223145
-0.068359375
-0.070495605
-0.072631836
-0.075073242
-0.077209473
-0.079345703
-0.080871582
-0.081787109
-0.081481934
-0.080871582
-0.079650879
-0.078430176
-0.076599121
-0.075073242
-0.073547363
-0.072021484
-0.070800781
-0.068969727
-0.067138672
-0.064697266
-0.061950684
-0.059509277
-0.057373047
-0.055847168
-0.054931641
-0.053710938
-0.052185059
-0.050354004
-0.048828125
-0.047607422
-0.04699707
-0.046691895
-0.046691895
-0.046691895
-0.046386719
-0.045471191
-0.043945312
-0.041503906
-0.038452148
-0.035705566
-0.033874512
-0.032958984
-0.032958984
-0.032958984
-0.032958984
-0.032958984
-0.032958984
-0.032958984
-0.033569336
-0.034484863
-0.036010742
-0.038146973
-0.040588379
-0.042724609
-0.045166016
-0.04699707
-0.048217773
-0.048522949
-0.048828125
-0.048522949
-0.047912598
-0.046691895
-0.044555664
-0.042114258
-0.038757324
-0.035095215
-0.031738281
-0.028686523
-0.025939941
-0.023803711
-0.021972656
-0.020446777
-0.018920898
-0.018005371
-0.01739502
-0.017089844
-0.017700195
-0.018920898
-0.020751953
-0.023193359
-0.025939941
-0.029296875
-0.032653809
-0.036315918
-0.039978027
-0.043334961
-0.046386719
-0.048522949
-0.049743652
-0.050048828
-0.050048828
-0.049438477
-0.048522949
-0.047302246
-0.045471191
-0.043334961
-0.040588379
-0.03692627
-0.032958984
-0.028381348
-0.023803711
-0.019226074
-0.014343262
-0.009765625
-0.0051879883
-0.00091552734
0.0030517578
0.0064086914
0.0082397461
0.0091552734
0.0088500977
0.0079345703
0.0067138672
0.0054931641
0.0036621094
0.0018310547
-0.00030517578
-0.002746582
-0.0057983398
-0.0091552734
-0.012512207
-0.015869141
-0.018615723
-0.020751953
-0.021972656
-0.022583008
-0.02166748
-0.019836426
-0.017089844
-0.014038086
-0.010986328
-0.0082397461
-0.0054931641
-0.002746582
0
0.0024414062
0.0051879883
0.0079345703
0.010375977
0.013122559
0.015563965
0.01739502
0.018920898
0.019836426
0.020446777
0.021057129
0.02166748
0.022888184
0.024108887
0.025024414
0.025634766
0.025634766
0.025939941
0.025939941
0.025634766
0.025634766
0.02532959
0.02532959
0.025024414
0.025024414
0.02532959
0.026245117
0.027160645
0.028991699
0.03112793
0.034179688
0.037841797
0.042114258
0.046081543
0.050048828
0.053100586
0.055541992
0.057373047
0.058898926
0.060119629
0.061645508
0.062255859
0.062255859
0.061035156
0.059204102
0.057067871
0.054321289
0.051269531
0.048217773
0.045471191
0.043334961
0.04119873
0.039978027
0.039672852
0.040283203
0.041503906
0.042724609
0.044555664
0.046081543
0.047607422
0.049743652
0.052185059
0.054931641
0.057678223
0.060424805
0.063171387
0.065612793
0.067749023
0.07019043
0.07232666
0.074157715
0.075683594
0.077209473
0.078735352
0.080871582
0.083007812
0.085144043
0.087280273
0.089111328
0.090332031
0.091247559
0.092468262
0.093688965
0.095214844
0.097045898
0.098266602
0.098876953
0.098876953
0.098571777
0.09765625
0.096130371
0.094909668
0.093383789
0.092468262
0.092163086
0.092163086
0.09185791
0.090637207
0.088806152
0.085754395
0.082397461
0.078735352
0.075378418
0.07232666
0.069885254
0.067443848
0.065002441
0.062255859
0.059204102
0.054931641
0.050354004
0.04486084
0.038757324
0.032958984
0.027160645
0.021362305
0.015869141
0.010681152
0.0051879883
-0.00030517578
-0.0064086914
-0.012817383
-0.019226074
-0.025634766
-0.031738281
-0.037536621
-0.042724609
-0.047302246
-0.050964355
-0.054321289
-0.057373047
-0.060119629
-0.062255859
-0.064086914
-0.065307617
-0.066223145
-0.06652832
-0.06652832
-0.065917969
-0.065612793
-0.065002441
-0.064697266
-0.064086914
-0.063476562
-0.063171387
-0.062866211
-0.062561035
-0.062255859
-0.062255859
-0.062255859
-0.062561035
-0.062866211
-0.063476562
-0.063781738
-0.064086914
-0.06439209
-0.064697266
-0.065307617
-0.066223145
-0.067138672
-0.068359375
-0.069580078
-0.070800781
-0.072021484
-0.073242188
-0.074157715
-0.075073242
-0.076599121
-0.078125
-0.079650879
-0.080871582
-0.081481934
-0.081176758
-0.08026123
-0.078430176
-0.076293945
-0.074462891
-0.073852539
-0.073852539
-0.073852539
-0.073242188
-0.072021484
-0.071105957
-0.070800781
-0.071716309
-0.073547363
-0.07598877
-0.079040527
-0.081787109
-0.084838867
-0.087280273
-0.089416504
-0.091247559
-0.092468262
-0.093688965
-0.094299316
-0.094604492
-0.094299316
-0.093688965
-0.092773438
-0.091247559
-0.089111328
-0.086364746
-0.083312988
-0.08026123
-0.077819824
-0.075378418
-0.073547363
-0.072021484
-0.070800781
-0.069885254
-0.069274902
-0.068969727
-0.068969727
-0.068969727
-0.069274902
-0.069580078
-0.069580078
-0.069274902
-0.068664551
-0.068359375
-0.068359375
-0.068359375
-0.068969727
-0.069274902
-0.069885254
-0.07019043
-0.070495605
-0.070495605
-0.07019043
-0.069885254
-0.068969727
-0.067749023
-0.066223145
-0.065002441
-0.064086914
-0.063476562
-0.062866211
-0.062561035
-0.061950684
-0.061340332
-0.061035156
-0.06072998
-0.06072998
-0.06072998
-0.061035156
-0.061340332
-0.062255859
-0.062561035
-0.062866211
-0.062561035
-0.062255859
-0.062255859
-0.062561035
-0.063476562
-0.06439209
-0.065307617
-0.065917969
-0.065917969
-0.065002441
-0.063781738
-0.062255859
-0.061035156
-0.06072998
-0.06072998
-0.061340332
-0.062255859
-0.062866211
-0.063171387
-0.063171387
-0.062561035
-0.061950684
-0.061340332
-0.061035156
-0.06072998
-0.060424805
-0.060424805
-0.06072998
-0.061035156
-0.061645508
-0.062561035
-0.063476562
-0.06439209
-0.065612793
-0.06652832
-0.067443848
-0.068359375
-0.069274902
-0.07019043
-0.071411133
-0.072937012
-0.074462891
-0.075378418
-0.075683594
-0.075683594
-0.075073242
-0.073852539
-0.072021484
-0.069885254
-0.067443848
-0.06439209
-0.061035156
-0.057373047
-0.054016113
-0.05065918
-0.048217773
-0.046386719
-0.045471191
-0.045166016
-0.045166016
-0.046081543
-0.047607422
-0.049438477
-0.051269531
-0.053710938
-0.056152344
-0.058898926
-0.061645508
-0.064697266
-0.067138672
-0.068969727
-0.070495605
-0.070800781
-0.070800781
-0.069885254
-0.068054199
-0.065917969
-0.063476562
-0.061340332
-0.059814453
-0.058288574
-0.057373047
-0.05645752
-0.055847168
-0.055847168
-0.05645752
-0.057067871
-0.057678223
-0.05859375
-0.059814453
-0.061340332
-0.062866211
-0.064086914
-0.065307617
-0.065917969
-0.06652832
-0.066223145
-0.065612793
-0.06439209
-0.062866211
-0.061035156
-0.058898926
-0.056762695
-0.054626465
