datamikearmankleankle.acq
1.0 msec/sample
1 channels
ECG (.05 - 35 Hz)
mV
CH2,
129590,
0.08605957
0.088195801
0.090637207
0.092468262
0.094604492
0.097045898
0.099487305
0.10192871
0.10467529
0.10742188
0.11047363
0.11322021
0.1159668
0.11901855
0.12207031
0.12542725
0.12908936
0.13336182
0.13763428
0.14190674
0.14648438
0.15106201
0.15563965
0.16052246
0.16571045
0.17120361
0.17669678
0.18218994
0.18798828
0.19317627
0.19805908
0.20294189
0.20782471
0.21270752
0.21759033
0.22247314
0.22705078
0.23162842
0.23590088
0.24017334
0.2444458
0.24871826
0.25268555
0.25695801
0.26123047
0.26550293
0.26947021
0.27374268
0.27770996
0.28198242
0.28594971
0.28991699
0.29388428
0.29785156
0.30151367
0.30487061
0.30792236
0.31036377
0.31280518
0.31524658
0.31738281
0.31951904
0.32165527
0.32348633
0.32501221
0.32653809
0.32745361
0.32836914
0.32897949
0.32958984
0.32958984
0.32928467
0.32867432
0.32775879
0.32653809
0.32501221
0.32287598
0.32043457
0.31707764
0.31341553
0.30883789
0.3036499
0.29785156
0.29144287
0.284729
0.27801514
0.27069092
0.2633667
0.2557373
0.24749756
0.23925781
0.23101807
0.22277832
0.21453857
0.20629883
0.19805908
0.18981934
0.18157959
0.17272949
0.16357422
0.15441895
0.14465332
0.1348877
0.12512207
0.11535645
0.10528564
0.09552002
0.085449219
0.075683594
0.065612793
0.055847168
0.046081543
0.036621094
0.027770996
0.01953125
0.01159668
0.0042724609
-0.0024414062
-0.0088500977
-0.014343262
-0.01953125
-0.024108887
-0.028076172
-0.031738281
-0.034790039
-0.037536621
-0.040588379
-0.043334961
-0.046386719
-0.049133301
-0.051879883
-0.054321289
-0.05645752
-0.05859375
-0.06072998
-0.062866211
-0.065307617
-0.068054199
-0.070800781
-0.073547363
-0.076599121
-0.079650879
-0.082702637
-0.085449219
-0.088195801
-0.090637207
-0.092773438
-0.093994141
-0.094604492
-0.094909668
-0.094909668
-0.094604492
-0.093994141
-0.093078613
-0.092163086
-0.090942383
-0.089416504
-0.087585449
-0.085754395
-0.08392334
-0.082397461
-0.080871582
-0.079956055
-0.079650879
-0.079650879
-0.079956055
-0.080871582
-0.081787109
-0.083007812
-0.084228516
-0.085449219
-0.086669922
-0.087890625
-0.089416504
-0.090637207
-0.091552734
-0.092163086
-0.092163086
-0.09185791
-0.090942383
-0.090026855
-0.088806152
-0.087585449
-0.086364746
-0.085144043
-0.08392334
-0.083007812
-0.081787109
-0.080566406
-0.079345703
-0.078430176
-0.077514648
-0.076904297
-0.076293945
-0.075683594
-0.074768066
-0.074157715
-0.073242188
-0.07232666
-0.071105957
-0.070495605
-0.069580078
-0.068969727
-0.068664551
-0.068359375
-0.068359375
-0.068664551
-0.068969727
-0.069885254
-0.070495605
-0.071411133
-0.072021484
-0.072631836
-0.073242188
-0.073547363
-0.073547363
-0.073852539
-0.073547363
-0.072937012
-0.071716309
-0.070800781
-0.069274902
-0.068054199
-0.066833496
-0.065612793
-0.06439209
-0.063171387
-0.061645508
-0.060119629
-0.05859375
-0.057373047
-0.056762695
-0.05645752
-0.056152344
-0.056152344
-0.056152344
-0.056152344
-0.055847168
-0.055541992
-0.055236816
-0.054931641
-0.054016113
-0.05279541
-0.051269531
-0.049743652
-0.048217773
-0.04699707
-0.046081543
-0.045471191
-0.045166016
-0.045166016
-0.045166016
-0.045471191
-0.045776367
-0.046386719
-0.046691895
-0.047302246
-0.047912598
-0.048828125
-0.049743652
-0.051269531
-0.052490234
-0.053405762
-0.054321289
-0.054931641
-0.054931641
-0.054931641
-0.054626465
-0.054016113
-0.053100586
-0.052185059
-0.05065918
-0.049438477
-0.048522949
-0.047607422
-0.046691895
-0.046081543
-0.045166016
-0.044555664
-0.043945312
-0.043640137
-0.043640137
-0.044555664
-0.045471191
-0.04699707
-0.048217773
-0.049438477
-0.05065918
-0.051879883
-0.053100586
-0.054321289
-0.055541992
-0.056762695
-0.057678223
-0.05859375
-0.059204102
-0.059509277
-0.059509277
-0.059509277
-0.059204102
-0.058898926
-0.058288574
-0.057678223
-0.056762695
-0.056152344
-0.055847168
-0.055541992
-0.054931641
-0.054626465
-0.054321289
-0.054016113
-0.053710938
-0.053405762
-0.053100586
-0.05279541
-0.052490234
-0.051879883
-0.051574707
-0.050964355
-0.05065918
-0.050354004
-0.050048828
-0.049743652
-0.049743652
-0.049743652
-0.050048828
-0.050354004
-0.05065918
-0.051269531
-0.052185059
-0.053100586
-0.054321289
-0.055541992
-0.056762695
-0.057983398
-0.058898926
-0.059509277
-0.060119629
-0.060424805
-0.060424805
-0.060119629
-0.059814453
-0.059204102
-0.058288574
-0.057373047
-0.056152344
-0.054626465
-0.053405762
-0.052185059
-0.050964355
-0.050048828
-0.049438477
-0.049438477
-0.049743652
-0.050048828
-0.05065918
-0.051574707
-0.052490234
-0.053710938
-0.054931641
-0.056762695
-0.05859375
-0.060424805
-0.062255859
-0.06439209
-0.066223145
-0.067749023
-0.069274902
-0.070495605
-0.071411133
-0.072021484
-0.072021484
-0.072021484
-0.072021484
-0.071716309
-0.071716309
-0.071411133
-0.071411133
-0.071105957
-0.070495605
-0.069885254
-0.069274902
-0.068664551
-0.068359375
-0.067749023
-0.067138672
-0.066223145
-0.065307617
-0.064086914
-0.063171387
-0.062255859
-0.061645508
-0.06072998
-0.059509277
-0.057983398
-0.05645752
-0.054626465
-0.05279541
-0.05065918
-0.048828125
-0.046691895
-0.044250488
-0.041809082
-0.039367676
-0.036621094
-0.033569336
-0.030517578
-0.027160645
-0.023498535
-0.019836426
-0.016174316
-0.013122559
-0.010375977
-0.0079345703
-0.0061035156
-0.0045776367
-0.0033569336
-0.002746582
-0.0021362305
-0.0018310547
-0.0018310547
-0.0018310547
-0.0018310547
-0.0021362305
-0.0024414062
-0.0030517578
-0.0033569336
-0.0033569336
-0.002746582
-0.0012207031
0.00091552734
0.0036621094
0.0064086914
0.0094604492
0.012817383
0.016174316
0.019226074
0.022277832
0.024719238
0.026550293
0.027770996
0.028381348
0.028076172
0.027160645
0.025634766
0.023193359
0.020446777
0.016784668
0.012512207
0.0073242188
0.0018310547
-0.0042724609
-0.010375977
-0.016479492
-0.022583008
-0.028381348
-0.033874512
-0.0390625
-0.043945312
-0.048217773
-0.052490234
-0.05645752
-0.060119629
-0.063171387
-0.066223145
-0.068969727
-0.071411133
-0.073852539
-0.07598877
-0.077819824
-0.079650879
-0.081787109
-0.083618164
-0.08605957
-0.088195801
-0.090332031
-0.092773438
-0.094604492
-0.096740723
-0.098571777
-0.10009766
-0.10131836
-0.10253906
-0.10345459
-0.10467529
-0.10528564
-0.105896
-0.10620117
-0.105896
-0.10559082
-0.10498047
-0.10406494
-0.10345459
-0.10284424
-0.10253906
-0.10253906
-0.10284424
-0.10284424
-0.10314941
-0.10314941
-0.10314941
-0.10345459
-0.10375977
-0.10406494
-0.10467529
-0.10498047
-0.10528564
-0.10559082
-0.10528564
-0.10528564
-0.10498047
-0.10437012
-0.10406494
-0.10375977
-0.10345459
-0.10314941
-0.10253906
-0.10253906
-0.10223389
-0.10192871
-0.10162354
-0.10162354
-0.10162354
-0.10192871
-0.10253906
-0.10314941
-0.10406494
-0.10467529
-0.10498047
-0.10528564
-0.10528564
-0.10528564
-0.10528564
-0.10528564
-0.10528564
-0.10528564
-0.10528564
-0.10498047
-0.10467529
-0.10406494
-0.10375977
-0.10314941
-0.10284424
-0.10284424
-0.10284424
-0.10284424
-0.10284424
-0.10284424
-0.10223389
-0.10192871
-0.10131836
-0.10040283
-0.099487305
-0.098266602
-0.097045898
-0.09552002
-0.093994141
-0.092163086
-0.090026855
-0.087585449
-0.085144043
-0.083007812
-0.080871582
-0.079345703
-0.078125
-0.077819824
-0.078125
-0.079345703
-0.081176758
-0.083312988
-0.08605957
-0.089416504
-0.093078613
-0.096435547
-0.099487305
-0.10223389
-0.10437012
-0.10559082
-0.10620117
-0.105896
-0.10467529
-0.10284424
-0.10009766
-0.096435547
-0.092163086
-0.086975098
-0.081176758
-0.074462891
-0.066833496
-0.058288574
-0.048217773
-0.037231445
-0.025024414
-0.010986328
0.0045776367
0.022888184
0.043334961
0.067138672
0.094299316
0.12481689
0.15899658
0.19622803
0.23529053
0.27587891
0.31677246
0.35705566
0.39550781
0.43060303
0.46173096
0.48706055
0.50537109
0.51605225
0.5178833
0.51147461
0.49621582
0.47271729
0.44158936
0.40313721
0.35797119
0.30792236
0.2545166
0.19897461
0.14282227
0.086975098
0.03326416
-0.017700195
-0.064697266
-0.10742188
-0.1449585
-0.17730713
-0.2041626
-0.2255249
-0.24169922
-0.25299072
-0.25939941
-0.26184082
-0.26062012
-0.25634766
-0.24932861
-0.23956299
-0.22827148
-0.21484375
-0.20019531
-0.18463135
-0.16815186
-0.15106201
-0.13397217
-0.11688232
-0.10040283
-0.084533691
-0.069885254
-0.056762695
-0.045471191
-0.035705566
-0.028076172
-0.022277832
-0.018310547
-0.016174316
-0.015258789
-0.015869141
-0.01739502
-0.019836426
-0.022888184
-0.025939941
-0.029296875
-0.032348633
-0.034790039
-0.03692627
-0.038452148
-0.039367676
-0.039672852
-0.039367676
-0.038452148
-0.037231445
-0.036315918
-0.035095215
-0.034179688
-0.03326416
-0.032348633
-0.031738281
-0.030822754
-0.029907227
-0.028991699
-0.028381348
-0.028381348
-0.028381348
-0.028381348
-0.028686523
-0.028991699
-0.029296875
-0.029602051
-0.029907227
-0.029602051
-0.028991699
-0.028076172
-0.027160645
-0.026245117
-0.025024414
-0.024414062
-0.023498535
-0.022888184
-0.022583008
-0.022583008
-0.022583008
-0.022277832
-0.022277832
-0.022277832
-0.022277832
-0.022583008
-0.023193359
-0.023803711
-0.024414062
-0.025024414
-0.02532959
-0.02532959
-0.02532959
-0.025024414
-0.024719238
-0.024108887
-0.023193359
-0.022583008
-0.021362305
-0.020141602
-0.018615723
-0.016784668
-0.014953613
-0.012817383
-0.010681152
-0.0082397461
-0.0061035156
-0.0039672852
-0.0018310547
0
0.0015258789
0.0030517578
0.0042724609
0.0051879883
0.0061035156
0.0067138672
0.007019043
0.007019043
0.0067138672
0.0061035156
0.0048828125
0.0033569336
0.0018310547
0
-0.0015258789
-0.0030517578
-0.0042724609
-0.0051879883
-0.0057983398
-0.0061035156
-0.0057983398
-0.0054931641
-0.0048828125
-0.0042724609
-0.0036621094
-0.0030517578
-0.0021362305
-0.00091552734
0.00061035156
0.0021362305
0.0039672852
0.0057983398
0.0076293945
0.009765625
0.011291504
0.013122559
0.014343262
0.015563965
0.016479492
0.017700195
0.018615723
0.019836426
0.021057129
0.021972656
0.023193359
0.024719238
0.026245117
0.02746582
0.028686523
0.029602051
0.030822754
0.032043457
0.033569336
0.035095215
0.036621094
0.038146973
0.039367676
0.040893555
0.042114258
0.043334961
0.04486084
0.046691895
0.048828125
0.050964355
0.053405762
0.055847168
0.058898926
0.061950684
0.065307617
0.068969727
0.072631836
0.076293945
0.079650879
0.082397461
0.085144043
0.087890625
0.090637207
0.093688965
0.096740723
0.09979248
0.10284424
0.105896
0.1083374
0.11077881
0.11291504
0.11535645
0.11810303
0.12145996
0.12542725
0.12969971
0.13427734
0.13885498
0.14373779
0.14862061
0.15350342
0.15838623
0.16326904
0.16845703
0.17333984
0.17852783
0.18371582
0.18859863
0.19348145
0.19805908
0.20263672
0.20721436
0.21209717
0.2166748
0.22155762
0.22644043
0.23101807
0.2355957
0.24047852
0.24475098
0.24932861
0.25360107
0.25756836
0.26153564
0.26489258
0.26794434
0.27038574
0.2722168
0.27404785
0.27557373
0.27679443
0.27801514
0.27923584
0.28015137
0.28076172
0.28137207
0.28167725
0.2822876
0.2822876
0.28259277
0.2822876
0.28198242
0.28167725
0.28137207
0.28076172
0.28015137
0.27893066
0.27740479
0.27526855
0.27282715
0.27008057
0.26672363
0.26306152
0.25878906
0.25421143
0.24902344
0.24291992
0.23620605
0.22888184
0.22064209
0.21179199
0.20263672
0.19317627
0.18341064
0.17364502
0.16357422
0.15350342
0.14282227
0.13244629
0.12207031
0.11138916
0.10070801
0.090332031
0.08026123
0.070495605
0.061035156
0.051879883
0.043334961
0.034790039
0.026855469
0.018920898
0.011291504
0.0033569336
-0.0042724609
-0.01159668
-0.018920898
-0.025634766
-0.032348633
-0.038757324
-0.04486084
-0.05065918
-0.056152344
-0.061340332
-0.066223145
-0.070800781
-0.075073242
-0.079345703
-0.083618164
-0.087585449
-0.09185791
-0.095825195
-0.099487305
-0.10314941
-0.10620117
-0.10894775
-0.11138916
-0.11413574
-0.1171875
-0.11993408
-0.12268066
-0.12573242
-0.12817383
-0.13061523
-0.13244629
-0.13397217
-0.13519287
-0.1361084
-0.1373291
-0.13824463
-0.1385498
-0.1385498
-0.13824463
-0.13763428
-0.13702393
-0.1361084
-0.13549805
-0.13427734
-0.13336182
-0.13183594
-0.13061523
-0.12908936
-0.12786865
-0.12695312
-0.1260376
-0.12542725
-0.12512207
-0.12512207
-0.12542725
-0.12573242
-0.1260376
-0.12634277
-0.12664795
-0.12695312
-0.1272583
-0.12756348
-0.12786865
-0.12786865
-0.12817383
-0.128479
-0.12878418
-0.12939453
-0.12969971
-0.13000488
-0.13031006
-0.13061523
-0.13061523
-0.13092041
-0.13122559
-0.13122559
-0.13153076
-0.13122559
-0.13122559
-0.13092041
-0.13031006
-0.12969971
-0.12878418
-0.12756348
-0.1260376
-0.12420654
-0.12298584
-0.12207031
-0.12115479
-0.12023926
-0.11932373
-0.1184082
-0.1171875
-0.1159668
-0.11505127
-0.11444092
-0.11413574
-0.11413574
-0.11444092
-0.11474609
-0.11474609
-0.11535645
-0.1159668
-0.11657715
-0.11688232
-0.11749268
-0.11779785
-0.11810303
-0.11871338
-0.11932373
-0.11962891
-0.11993408
-0.11962891
-0.11932373
-0.1184082
-0.1171875
-0.1159668
-0.11444092
-0.11260986
-0.11077881
-0.10894775
-0.10742188
-0.10559082
-0.10406494
-0.10284424
-0.10223389
-0.10192871
-0.10192871
-0.10192871
-0.10192871
-0.10223389
-0.10253906
-0.10314941
-0.10437012
-0.10528564
-0.105896
-0.10650635
-0.1071167
-0.1071167
-0.1071167
-0.10650635
-0.10620117
-0.10559082
-0.10498047
-0.10467529
-0.10406494
-0.10375977
-0.10345459
-0.10314941
-0.10284424
-0.10284424
-0.10284424
-0.10284424
-0.10314941
-0.10345459
-0.10375977
-0.10406494
-0.10437012
-0.10467529
-0.10498047
-0.10528564
-0.10559082
-0.10559082
-0.10528564
-0.10498047
-0.10437012
-0.10406494
-0.10345459
-0.10284424
-0.10223389
-0.10131836
-0.10009766
-0.098876953
-0.097045898
-0.09552002
-0.093994141
-0.092468262
-0.091552734
-0.090637207
-0.090332031
-0.090332031
-0.090332031
-0.090637207
-0.091247559
-0.092468262
-0.093688965
-0.095214844
-0.096740723
-0.098266602
-0.09979248
-0.10101318
-0.10223389
-0.10345459
-0.10437012
-0.10467529
-0.10467529
-0.10406494
-0.10284424
-0.10162354
-0.10009766
-0.098571777
-0.097351074
-0.096130371
-0.095214844
-0.094604492
-0.093688965
-0.093078613
-0.092468262
-0.092163086
-0.09185791
-0.09185791
-0.09185791
-0.09185791
-0.09185791
-0.09185791
-0.092163086
-0.092163086
-0.09185791
-0.091247559
-0.090942383
-0.090332031
-0.090332031
-0.090332031
-0.090637207
-0.090942383
-0.090942383
-0.090942383
-0.090942383
-0.090942383
-0.091247559
-0.091247559
-0.091247559
-0.090942383
-0.090637207
-0.090026855
-0.089111328
-0.087890625
-0.086364746
-0.08392334
-0.081481934
-0.078735352
-0.075683594
-0.07232666
-0.068969727
-0.065307617
-0.061645508
-0.057678223
-0.053710938
-0.050048828
-0.046081543
-0.042419434
-0.038757324
-0.035400391
-0.032348633
-0.029296875
-0.026855469
-0.024719238
-0.022583008
-0.020751953
-0.018920898
-0.01739502
-0.016174316
-0.014953613
-0.014038086
-0.013122559
-0.012512207
-0.01159668
-0.010986328
-0.010070801
-0.0091552734
-0.0076293945
-0.0061035156
-0.0045776367
-0.0033569336
-0.0021362305
-0.00091552734
-0.00030517578
0.00030517578
0.0012207031
0.0018310547
0.0024414062
0.002746582
0.002746582
0.002746582
0.0021362305
0.00091552734
-0.00030517578
-0.0021362305
-0.0042724609
-0.0061035156
-0.0082397461
-0.010681152
-0.013122559
-0.015869141
-0.018920898
-0.022277832
-0.025634766
-0.029296875
-0.03326416
-0.037536621
-0.041809082
-0.046081543
-0.050354004
-0.054626465
-0.058898926
-0.063171387
-0.067749023
-0.07232666
-0.076904297
-0.081176758
-0.085144043
-0.088806152
-0.092163086
-0.095214844
-0.097961426
-0.10009766
-0.10192871
-0.10314941
-0.10406494
-0.10437012
-0.10467529
-0.10467529
-0.10437012
-0.10406494
-0.10345459
-0.10345459
-0.10314941
-0.10345459
-0.10406494
-0.10498047
-0.105896
-0.1071167
-0.1083374
-0.10986328
-0.11169434
-0.11322021
-0.11505127
-0.11657715
-0.1184082
-0.11962891
-0.12084961
-0.12176514
-0.12237549
-0.12298584
-0.12298584
-0.12329102
-0.12329102
-0.12298584
-0.12237549
-0.12145996
-0.12054443
-0.11962891
-0.11871338
-0.11779785
-0.1171875
-0.11688232
-0.11627197
-0.11535645
-0.11444092
-0.11322021
-0.11199951
-0.11108398
-0.11047363
-0.10986328
-0.10986328
-0.10986328
-0.11016846
-0.11016846
-0.11016846
-0.11016846
-0.11047363
-0.11047363
-0.11077881
-0.11138916
-0.11169434
-0.11230469
-0.11291504
-0.11352539
-0.11413574
-0.11413574
-0.11413574
-0.11383057
-0.11383057
-0.11352539
-0.11322021
-0.11322021
-0.11322021
-0.11352539
-0.11383057
-0.11413574
-0.11444092
-0.11505127
-0.11566162
-0.11657715
-0.11688232
-0.11749268
-0.11749268
-0.11779785
-0.11779785
-0.11779785
-0.11749268
-0.11688232
-0.1159668
-0.11535645
-0.11444092
-0.11352539
-0.11230469
-0.11108398
-0.10955811
-0.10772705
-0.10620117
-0.10498047
-0.10375977
-0.10345459
-0.10375977
-0.10437012
-0.10559082
-0.10742188
-0.10986328
-0.11260986
-0.11566162
-0.11871338
-0.12115479
-0.12298584
-0.12420654
-0.12451172
-0.12390137
-0.12298584
-0.12115479
-0.11901855
-0.1159668
-0.11199951
-0.10681152
-0.10070801
-0.093688965
-0.085449219
-0.07598877
-0.065307617
-0.053405762
-0.040588379
-0.026245117
-0.009765625
0.0085449219
0.029296875
0.05279541
0.079650879
0.11047363
0.1449585
0.18249512
0.22247314
0.26367188
0.30487061
0.34515381
0.38391113
0.41992188
0.45196533
0.47851562
0.49865723
0.51086426
0.51483154
0.50933838
0.49468994
0.47058105
0.43762207
0.39642334
0.34851074
0.29510498
0.23773193
0.1776123
0.11657715
0.055236816
-0.0042724609
-0.06072998
-0.11352539
-0.16113281
-0.20294189
-0.23895264
-0.26855469
-0.29144287
-0.30853271
-0.31951904
-0.32501221
-0.32592773
-0.32226562
-0.31555176
-0.30578613
-0.29418945
-0.28106689
-0.26672363
-0.25146484
-0.23529053
-0.21881104
-0.20202637
-0.18554688
-0.16998291
-0.1550293
-0.14099121
-0.128479
-0.1171875
-0.10742188
-0.098876953
-0.091552734
-0.085449219
-0.080871582
-0.077209473
-0.074462891
-0.072631836
-0.071716309
-0.072021484
-0.072937012
-0.074157715
-0.075683594
-0.077209473
-0.078430176
-0.079956055
-0.081481934
-0.083007812
-0.084533691
-0.08605957
-0.086975098
-0.087890625
-0.087890625
-0.087890625
-0.087280273
-0.086364746
-0.085144043
-0.08392334
-0.082702637
-0.081176758
-0.079650879
-0.078125
-0.076599121
-0.075073242
-0.073547363
-0.072021484
-0.070495605
-0.068969727
-0.067749023
-0.066833496
-0.06652832
-0.066223145
-0.066223145
-0.06652832
-0.067138672
-0.068054199
-0.068664551
-0.069580078
-0.07019043
-0.071105957
-0.072021484
-0.072631836
-0.073242188
-0.073852539
-0.074157715
-0.074462891
-0.074768066
-0.075073242
-0.075073242
-0.075073242
-0.074768066
-0.074157715
-0.073242188
-0.07232666
-0.071105957
-0.069885254
-0.068664551
-0.067138672
-0.065307617
-0.063781738
-0.061950684
-0.060424805
-0.058898926
-0.057678223
-0.05645752
-0.055541992
-0.054931641
-0.054321289
-0.054016113
-0.054016113
-0.054016113
-0.054321289
-0.054626465
-0.055541992
-0.056762695
-0.058288574
-0.059814453
-0.061645508
-0.062866211
-0.064086914
-0.065002441
-0.065307617
-0.065612793
-0.065307617
-0.064697266
-0.064086914
-0.063171387
-0.062255859
-0.061035156
-0.059814453
-0.05859375
-0.057373047
-0.055847168
-0.054321289
-0.052490234
-0.050964355
-0.049133301
-0.047607422
-0.046386719
-0.045166016
-0.044250488
-0.043334961
-0.042724609
-0.042114258
-0.041503906
-0.040893555
-0.040283203
-0.039672852
-0.0390625
-0.038452148
-0.037536621
-0.036621094
-0.036010742
-0.035095215
-0.034484863
-0.033569336
-0.032958984
-0.032043457
-0.03112793
-0.029907227
-0.028686523
-0.026855469
-0.02532959
-0.023498535
-0.02166748
-0.01953125
-0.017089844
-0.014648438
-0.011901855
-0.0094604492
-0.007019043
-0.0048828125
-0.0024414062
-0.00030517578
0.0018310547
0.0036621094
0.0054931641
0.0067138672
0.0079345703
0.0088500977
0.010070801
0.010986328
0.012207031
0.01373291
0.015258789
0.017089844
0.018615723
0.020751953
0.022888184
0.025939941
0.029296875
0.032958984
0.037536621
0.042114258
0.04699707
0.051879883
0.056762695
0.061340332
0.065612793
0.07019043
0.074462891
0.078735352
0.083007812
0.086975098
0.090332031
0.093688965
0.096740723
0.09979248
0.10253906
0.10528564
0.1083374
0.11169434
0.11535645
0.11962891
0.12420654
0.12908936
0.13427734
0.13977051
0.1449585
0.15045166
0.15563965
0.16052246
0.16540527
0.16998291
0.17425537
0.17852783
0.18249512
0.18554688
0.18798828
0.18981934
0.19104004
0.19226074
0.19287109
0.19317627
0.19348145
0.19378662
0.19378662
0.19348145
0.19348145
0.19348145
0.19378662
0.19500732
0.19622803
0.19744873
0.19866943
0.19958496
0.20019531
0.20050049
0.20050049
0.19989014
0.19866943
0.19714355
0.19500732
0.19256592
0.18951416
0.18554688
0.18096924
0.17578125
0.16998291
0.16387939
0.15716553
0.15014648
0.14282227
0.1348877
0.12695312
0.11871338
0.10986328
0.10101318
0.092163086
0.082702637
0.072937012
0.062561035
0.052185059
0.041809082
0.031433105
0.021057129
0.010681152
0.00061035156
-0.009765625
-0.020141602
-0.030212402
-0.039672852
-0.048522949
-0.05645752
-0.064086914
-0.071105957
-0.077514648
-0.08392334
-0.090026855
-0.095825195
-0.10131836
-0.10650635
-0.11138916
-0.11627197
-0.12115479
-0.1260376
-0.13122559
-0.13641357
-0.14190674
-0.1473999
-0.15289307
-0.15808105
-0.16326904
-0.16784668
-0.17242432
-0.1763916
-0.18035889
-0.18371582
-0.18676758
-0.18951416
-0.19165039
-0.19348145
-0.19470215
-0.19561768
-0.1965332
-0.19744873
-0.19836426
-0.19927979
-0.19989014
-0.20080566
-0.20141602
-0.20233154
-0.20324707
-0.2041626
-0.2053833
-0.206604
-0.20782471
-0.20904541
-0.21026611
-0.21118164
-0.21179199
-0.21148682
-0.21087646
-0.21026611
-0.20965576
-0.20904541
-0.20843506
-0.20751953
-0.20629883
-0.20507812
-0.20355225
-0.20202637
-0.20080566
-0.19958496
-0.19836426
-0.19744873
-0.19683838
-0.19622803
-0.19592285
-0.19561768
-0.19592285
-0.19622803
-0.19683838
-0.19744873
-0.19836426
-0.19897461
-0.19989014
-0.20050049
-0.20111084
-0.20172119
-0.20233154
-0.20294189
-0.20324707
-0.20385742
-0.20385742
-0.2041626
-0.2041626
-0.2041626
-0.20385742
-0.20385742
-0.20355225
-0.20294189
-0.20263672
-0.20233154
-0.20233154
-0.20172119
-0.20141602
-0.20080566
-0.20019531
-0.19989014
-0.19927979
-0.19897461
-0.19836426
-0.19775391
-0.19683838
-0.19561768
-0.19470215
-0.19378662
-0.19256592
-0.19134521
-0.19042969
-0.18920898
-0.18829346
-0.18737793
-0.1864624
-0.18585205
-0.1852417
-0.1852417
-0.1852417
-0.18554688
-0.18585205
-0.18615723
-0.18676758
-0.18707275
-0.18768311
-0.18859863
-0.18951416
-0.19042969
-0.19104004
-0.19165039
-0.19226074
-0.19226074
-0.19256592
-0.19256592
-0.19226074
-0.19165039
-0.19104004
-0.19012451
-0.18890381
-0.18737793
-0.18615723
-0.18493652
-0.18371582
-0.18249512
-0.18127441
-0.18005371
-0.17913818
-0.17822266
-0.17730713
-0.17700195
-0.1763916
-0.17608643
-0.17578125
-0.17547607
-0.1751709
-0.1751709
-0.1751709
-0.1751709
-0.17486572
-0.17486572
-0.17486572
-0.17456055
-0.1739502
-0.17333984
-0.17303467
-0.17272949
-0.17303467
-0.17333984
-0.17364502
-0.17425537
-0.17456055
-0.1751709
-0.17578125
-0.17608643
-0.17608643
-0.1763916
-0.1763916
-0.17578125
-0.17547607
-0.17456055
-0.17364502
-0.17272949
-0.17181396
-0.17059326
-0.16967773
-0.16876221
-0.16784668
-0.16723633
-0.16693115
-0.16723633
-0.1675415
-0.16815186
-0.16906738
-0.17059326
-0.17181396
-0.17333984
-0.17486572
-0.1763916
-0.1776123
-0.17883301
-0.18035889
-0.18127441
-0.18218994
-0.18218994
-0.18218994
-0.18127441
-0.18035889
-0.17944336
-0.17852783
-0.17730713
-0.1763916
-0.17547607
-0.17486572
-0.17425537
-0.17364502
-0.17303467
-0.17242432
-0.17211914
-0.17150879
-0.17120361
-0.17028809
-0.16967773
-0.16906738
-0.16845703
-0.16845703
-0.16845703
-0.16845703
-0.16876221
-0.16906738
-0.16967773
-0.17028809
-0.17089844
-0.17181396
-0.17333984
-0.17486572
-0.1763916
-0.17822266
-0.18005371
-0.18188477
-0.184021
-0.18585205
-0.18768311
-0.18920898
-0.19012451
-0.19104004
-0.19104004
-0.19104004
-0.19042969
-0.18981934
-0.18920898
-0.18859863
-0.18768311
-0.18676758
-0.18585205
-0.18493652
-0.18371582
-0.18249512
-0.18127441
-0.18005371
-0.17883301
-0.1776123
-0.1763916
-0.1751709
-0.17364502
-0.17181396
-0.16967773
-0.1675415
-0.1651001
-0.16235352
-0.15930176
-0.15594482
-0.15258789
-0.14892578
-0.1449585
-0.14099121
-0.1373291
-0.13366699
-0.13031006
-0.1272583
-0.12420654
-0.12115479
-0.1184082
-0.11627197
-0.11413574
-0.11230469
-0.11047363
-0.10894775
-0.10742188
-0.10620117
-0.10498047
-0.10345459
-0.10223389
-0.10101318
-0.099487305
-0.097961426
-0.096740723
-0.095214844
-0.093688965
-0.092163086
-0.090942383
-0.08972168
-0.089111328
-0.088806152
-0.088806152
-0.089111328
-0.08972168
-0.090637207
-0.092163086
-0.093688965
-0.095825195
-0.098266602
-0.10101318
-0.10406494
-0.10742188
-0.11077881
-0.11474609
-0.11871338
-0.12268066
-0.12664795
-0.13061523
-0.13458252
-0.13885498
-0.14343262
-0.14801025
-0.15289307
-0.15777588
-0.16265869
-0.16693115
-0.17120361
-0.1751709
-0.17883301
-0.18280029
-0.1864624
-0.19012451
-0.19348145
-0.19622803
-0.19866943
-0.20080566
-0.20263672
-0.20446777
-0.20629883
-0.20843506
-0.21057129
-0.21270752
-0.21484375
-0.21728516
-0.21942139
-0.22186279
-0.2243042
-0.22705078
-0.22949219
-0.23162842
-0.23376465
-0.2355957
-0.23681641
-0.23803711
-0.23834229
-0.23864746
-0.23864746
-0.23834229
-0.23803711
-0.23712158
-0.23620605
-0.2355957
-0.23498535
-0.234375
-0.23406982
-0.23406982
-0.23406982
-0.234375
-0.23498535
-0.2355957
-0.23681641
-0.23803711
-0.23895264
-0.23986816
-0.24078369
-0.24139404
-0.24169922
-0.24200439
-0.24200439
-0.24139404
-0.24078369
-0.24017334
-0.23925781
-0.23803711
-0.23681641
-0.2355957
-0.23468018
-0.234375
-0.23406982
-0.234375
-0.23529053
-0.23590088
-0.23651123
-0.23712158
-0.23742676
-0.23803711
-0.23834229
-0.23895264
-0.23925781
-0.23956299
-0.23986816
-0.23986816
-0.23956299
-0.23956299
-0.23925781
-0.23925781
-0.23925781
-0.23895264
-0.23834229
-0.23773193
-0.23712158
-0.23681641
-0.23620605
-0.23620605
-0.23590088
-0.23590088
-0.2355957
-0.23498535
-0.234375
-0.23376465
-0.2331543
-0.23254395
-0.23193359
-0.23132324
-0.23040771
-0.23010254
-0.22949219
-0.22918701
-0.22918701
-0.22979736
-0.23071289
-0.23162842
-0.23254395
-0.2331543
-0.23345947
-0.23345947
-0.23376465
-0.23406982
-0.23468018
-0.23529053
-0.23620605
-0.23773193
-0.23925781
-0.24078369
-0.24261475
-0.2444458
-0.24597168
-0.24749756
-0.24902344
-0.25024414
-0.25146484
-0.25238037
-0.25268555
-0.25238037
-0.25146484
-0.24963379
-0.24719238
-0.24414062
-0.23986816
-0.23498535
-0.22979736
-0.22338867
-0.2166748
-0.20874023
-0.19989014
-0.18981934
-0.17852783
-0.16601562
-0.15167236
-0.13549805
-0.1159668
-0.093078613
-0.066223145
-0.035400391
0
0.038757324
0.080566406
0.12420654
0.16876221
0.21362305
0.25787354
0.30090332
0.3414917
0.37841797
0.41015625
0.43487549
0.45135498
0.45898438
0.45654297
0.44403076
0.42144775
0.38909912
0.34790039
0.29846191
0.24169922
0.17913818
0.11230469
0.042724609
-0.028076172
-0.098266602
-0.16662598
-0.23162842
-0.29205322
-0.34667969
-0.39489746
-0.43518066
-0.46783447
-0.49163818
-0.50750732
-0.51574707
-0.5166626
-0.51086426
-0.49987793
-0.48400879
-0.46417236
-0.44189453
-0.41717529
-0.39154053
-0.36529541
-0.33935547
-0.31433105
-0.29144287
-0.27038574
-0.25177002
-0.23620605
-0.22338867
-0.21331787
-0.20568848
-0.20019531
-0.19683838
-0.1953125
-0.19500732
-0.19592285
-0.19744873
-0.19958496
-0.20233154
-0.20507812
-0.20812988
-0.21087646
-0.21392822
-0.21636963
-0.21820068
-0.21972656
-0.22094727
-0.22186279
-0.22247314
-0.22277832
-0.2230835
-0.2230835
-0.2230835
-0.22277832
-0.22247314
-0.22216797
-0.22186279
-0.22155762
-0.22155762
-0.22155762
-0.22186279
-0.22216797
-0.22247314
-0.22277832
-0.2230835
-0.2230835
-0.22277832
-0.22247314
-0.22216797
-0.22186279
-0.22125244
-0.22033691
-0.21942139
-0.21850586
-0.21728516
-0.21575928
-0.2142334
-0.2130127
-0.21179199
-0.21087646
-0.21026611
-0.20935059
-0.20874023
-0.20812988
-0.20782471
-0.20751953
-0.20690918
-0.206604
-0.20599365
-0.2053833
-0.20477295
-0.20446777
-0.20385742
-0.20324707
-0.20294189
-0.20233154
-0.20172119
-0.20141602
-0.20080566
-0.20050049
-0.20019531
-0.19989014
-0.19958496
-0.19927979
-0.19927979
-0.19897461
-0.19897461
-0.19897461
-0.19866943
-0.19805908
-0.19744873
-0.19683838
-0.19592285
-0.19470215
-0.19378662
-0.19256592
-0.19165039
-0.19104004
-0.19042969
-0.18981934
-0.18951416
-0.18890381
-0.18829346
-0.18737793
-0.18615723
-0.18493652
-0.184021
-0.18310547
-0.18249512
-0.18249512
-0.18218994
-0.18188477
-0.18188477
-0.18127441
-0.18096924
-0.18035889
-0.17974854
-0.17913818
-0.17883301
-0.17852783
-0.17852783
-0.17883301
-0.17913818
-0.17913818
-0.17913818
-0.17883301
-0.17791748
-0.17700195
-0.17578125
-0.17456055
-0.17364502
-0.17242432
-0.17120361
-0.16967773
-0.16815186
-0.1663208
-0.16418457
-0.16204834
-0.15960693
-0.15716553
-0.15472412
-0.15228271
-0.14984131
-0.14709473
-0.14465332
-0.14221191
-0.13946533
-0.13702393
-0.1348877
-0.13244629
-0.13000488
-0.12786865
-0.12573242
-0.12390137
-0.12237549
-0.12084961
-0.11901855
-0.1171875
-0.11566162
-0.11413574
-0.11260986
-0.11077881
-0.10894775
-0.10681152
-0.10467529
-0.10223389
-0.099487305
-0.096435547
-0.093383789
-0.090026855
-0.086364746
-0.082702637
-0.078430176
-0.074462891
-0.069885254
-0.065307617
-0.06072998
-0.055847168
-0.050964355
-0.045776367
-0.040588379
-0.035705566
-0.030517578
-0.025939941
-0.021362305
-0.017089844
-0.013122559
-0.0091552734
-0.0051879883
-0.0015258789
0.0021362305
0.0054931641
0.0091552734
0.012817383
0.016174316
0.019836426
0.023193359
0.026550293
0.029296875
0.032043457
0.034790039
0.037231445
0.039978027
0.042724609
0.046081543
0.049438477
0.05279541
0.056152344
0.059814453
0.062866211
0.065917969
0.068664551
0.071105957
0.073547363
0.07598877
0.078430176
0.080871582
0.083312988
0.085449219
0.086975098
0.088195801
0.089111328
0.089416504
0.089416504
0.088806152
0.087585449
0.08605957
0.084228516
0.081787109
0.078735352
0.075683594
0.07232666
0.068664551
0.064697266
0.060119629
0.054931641
0.049133301
0.043029785
0.03692627
0.030212402
0.023498535
0.016784668
0.0094604492
0.0018310547
-0.0061035156
-0.014343262
-0.023193359
-0.032043457
-0.040893555
-0.050048828
-0.058898926
-0.068054199
-0.076904297
-0.085754395
-0.094604492
-0.10345459
-0.11230469
-0.12084961
-0.12969971
-0.13824463
-0.14709473
-0.15594482
-0.16418457
-0.17211914
-0.17974854
-0.18676758
-0.19378662
-0.20050049
-0.20690918
-0.21331787
-0.21911621
-0.22491455
-0.23040771
-0.23590088
-0.24078369
-0.24536133
-0.24963379
-0.25360107
-0.25756836
-0.26123047
-0.26489258
-0.26885986
-0.27252197
-0.27618408
-0.27984619
-0.2835083
-0.28747559
-0.2911377
-0.2947998
-0.29815674
-0.30151367
-0.30456543
-0.30731201
-0.30944824
-0.3112793
-0.3125
-0.3137207
-0.31433105
-0.31494141
-0.31524658
-0.31524658
-0.31494141
-0.31433105
-0.31341553
-0.3125
-0.31158447
-0.31036377
-0.30944824
-0.30883789
-0.30822754
-0.30731201
-0.30700684
-0.30639648
-0.30639648
-0.30639648
-0.30639648
-0.30639648
-0.30609131
-0.30578613
-0.30578613
-0.30578613
-0.30578613
-0.30639648
-0.30700684
-0.30761719
-0.30822754
-0.30883789
-0.30914307
-0.30944824
-0.30975342
-0.30975342
-0.30975342
-0.30975342
-0.30944824
-0.30944824
-0.30914307
-0.30883789
-0.30853271
-0.30792236
-0.30731201
-0.30670166
-0.30578613
-0.30517578
-0.30456543
-0.30426025
-0.30395508
-0.30395508
-0.30395508
-0.30426025
-0.30456543
-0.30487061
-0.30517578
-0.30517578
-0.30517578
-0.30487061
-0.30456543
-0.30395508
-0.30334473
-0.30273438
-0.30212402
-0.3012085
-0.30029297
-0.29937744
-0.29846191
-0.29754639
-0.29724121
-0.29693604
-0.29663086
-0.29663086
-0.29693604
-0.29724121
-0.29785156
-0.29846191
-0.29907227
-0.29968262
-0.30029297
-0.30090332
-0.30151367
-0.30212402
-0.3024292
-0.3024292
-0.3024292
-0.3024292
-0.3024292
-0.30212402
-0.30151367
-0.3012085
-0.30090332
-0.30059814
-0.30059814
-0.30059814
-0.30059814
-0.30090332
-0.3012085
-0.30181885
-0.30273438
-0.30334473
-0.3036499
-0.3036499
-0.30334473
-0.30273438
-0.30181885
-0.30090332
-0.29968262
-0.29876709
-0.29754639
-0.29663086
-0.29571533
-0.29510498
-0.29449463
-0.29388428
-0.29327393
-0.29296875
-0.29327393
-0.2935791
-0.29418945
-0.29510498
-0.29632568
-0.29785156
-0.29937744
-0.3012085
-0.30273438
-0.30426025
-0.30517578
-0.30609131
-0.30639648
-0.30670166
-0.30639648
-0.30578613
-0.30517578
-0.30395508
-0.30273438
-0.3012085
-0.29937744
-0.29785156
-0.29632568
-0.2947998
-0.29327393
-0.2923584
-0.2911377
-0.29052734
-0.28961182
-0.28900146
-0.28839111
-0.28808594
-0.28778076
-0.28778076
-0.28747559
-0.28747559
-0.28717041
-0.28717041
-0.28656006
-0.28625488
-0.28564453
-0.28503418
-0.284729
-0.28442383
-0.28442383
-0.28503418
-0.28564453
-0.28686523
-0.28808594
-0.28961182
-0.29083252
-0.29266357
-0.29418945
-0.29632568
-0.29876709
-0.3012085
-0.3036499
-0.30609131
-0.30792236
-0.30944824
-0.31005859
-0.31036377
-0.31066895
-0.31036377
-0.30975342
-0.30883789
-0.30731201
-0.30548096
-0.3036499
-0.30151367
-0.29937744
-0.29754639
-0.29571533
-0.29418945
-0.29296875
-0.29205322
-0.29144287
-0.2911377
-0.2911377
-0.29174805
-0.2923584
-0.2935791
-0.2947998
-0.29632568
-0.29754639
-0.29907227
-0.30059814
-0.30212402
-0.30334473
-0.30426025
-0.30487061
-0.30517578
-0.30548096
-0.30517578
-0.30517578
-0.30487061
-0.30487061
-0.30456543
-0.30456543
-0.30456543
-0.30456543
-0.30487061
-0.30578613
-0.30670166
-0.30792236
-0.30914307
-0.31036377
-0.31188965
-0.31280518
-0.3137207
-0.31433105
-0.31463623
-0.31494141
-0.31524658
-0.31524658
-0.31494141
-0.31463623
-0.31402588
-0.31311035
-0.31219482
-0.3112793
-0.31036377
-0.30914307
-0.30853271
-0.30792236
-0.30761719
-0.30731201
-0.30731201
-0.30731201
-0.30731201
-0.30700684
-0.30700684
-0.30670166
-0.30609131
-0.30578613
-0.30578613
-0.30548096
-0.30548096
-0.30487061
-0.30426025
-0.3036499
-0.30273438
-0.3012085
-0.29937744
-0.29724121
-0.29510498
-0.29266357
-0.29052734
-0.28808594
-0.28564453
-0.28320312
-0.28045654
-0.27770996
-0.2746582
-0.27130127
-0.26824951
-0.26519775
-0.26245117
-0.26031494
-0.25817871
-0.25634766
-0.25421143
-0.25238037
-0.25024414
-0.24810791
-0.24597168
-0.24383545
-0.24169922
-0.23956299
-0.23742676
-0.2355957
-0.23376465
-0.23162842
-0.22949219
-0.22705078
-0.22491455
-0.22277832
-0.22094727
-0.21942139
-0.21850586
-0.21759033
-0.2166748
-0.21636963
-0.21636963
-0.21636963
-0.21697998
-0.21789551
-0.21911621
-0.22094727
-0.2230835
-0.22521973
-0.22766113
-0.23010254
-0.23284912
-0.23498535
-0.23742676
-0.23986816
-0.24261475
-0.2456665
-0.24902344
-0.25299072
-0.25665283
-0.26062012
-0.2645874
-0.26885986
-0.27282715
-0.27709961
-0.28137207
-0.28564453
-0.28991699
-0.2947998
-0.29968262
-0.30456543
-0.30914307
-0.31311035
-0.31646729
-0.31890869
-0.32104492
-0.32287598
-0.32470703
-0.32623291
-0.32775879
-0.32867432
-0.32958984
-0.3302002
-0.33081055
-0.33172607
-0.3326416
-0.33355713
-0.33477783
-0.33630371
-0.33752441
-0.33874512
-0.340271
-0.34179688
-0.34301758
-0.34423828
-0.34515381
-0.34606934
-0.34698486
-0.34729004
-0.34790039
-0.34820557
-0.34851074
-0.34881592
-0.34851074
-0.34851074
-0.34790039
-0.34759521
-0.34698486
-0.34667969
-0.34637451
-0.34606934
-0.34606934
-0.34576416
-0.34515381
-0.34423828
-0.34362793
-0.3427124
-0.34210205
-0.3414917
-0.34088135
-0.340271
-0.33966064
-0.33905029
-0.33843994
-0.33813477
-0.33782959
-0.33782959
-0.33782959
-0.33843994
-0.33874512
-0.33905029
-0.33905029
-0.33905029
-0.33905029
-0.33874512
-0.33843994
-0.33813477
-0.33752441
-0.33691406
-0.33599854
-0.33477783
-0.33355713
-0.33233643
-0.33111572
-0.32989502
-0.32867432
-0.32745361
-0.32623291
-0.32501221
-0.3237915
-0.32287598
-0.32165527
-0.32073975
-0.32043457
-0.31982422
-0.31982422
-0.31951904
-0.31951904
-0.31982422
-0.32012939
-0.32073975
-0.32165527
-0.3225708
-0.32348633
-0.32501221
-0.32623291
-0.32745361
-0.32867432
-0.32989502
-0.33081055
-0.3314209
-0.33203125
-0.33203125
-0.33203125
-0.3314209
-0.33050537
-0.32897949
-0.32714844
-0.32531738
-0.3237915
-0.32226562
-0.32104492
-0.32043457
-0.32043457
-0.32104492
-0.32196045
-0.32348633
-0.32531738
-0.32714844
-0.32928467
-0.3314209
-0.33355713
-0.33569336
-0.33721924
-0.33843994
-0.33905029
-0.33905029
-0.33782959
-0.33569336
-0.33294678
-0.32897949
-0.32409668
-0.31860352
-0.31188965
-0.30456543
-0.29632568
-0.28717041
-0.27709961
-0.26611328
-0.25390625
-0.24017334
-0.22460938
-0.20629883
-0.18554688
-0.16113281
-0.13366699
-0.10223389
-0.067138672
-0.029296875
0.010375977
0.05065918
0.091247559
0.13061523
0.16845703
0.20324707
0.23376465
0.25909424
0.27801514
0.28930664
0.29174805
0.28533936
0.26947021
0.2444458
0.21026611
0.16784668
0.1184082
0.063171387
0.0039672852
-0.058288574
-0.12207031
-0.18554688
-0.24810791
-0.30761719
-0.36376953
-0.41503906
-0.46051025
-0.49957275
-0.53192139
-0.55725098
-0.57556152
-0.58746338
-0.59295654
-0.59265137
-0.5871582
-0.5770874
-0.56335449
-0.54656982
-0.52764893
-0.50689697
-0.48522949
-0.46295166
-0.44036865
-0.41778564
-0.39611816
-0.37536621
-0.35614014
-0.33874512
-0.32348633
-0.31005859
-0.29907227
-0.29022217
-0.28320312
-0.27770996
-0.27374268
-0.27130127
-0.27008057
-0.27008057
-0.27069092
-0.2722168
-0.27435303
-0.27709961
-0.27984619
-0.28289795
-0.28564453
-0.28839111
-0.2911377
-0.2935791
-0.29632568
-0.29846191
-0.30029297
-0.30151367
-0.30273438
-0.30334473
-0.3036499
-0.30395508
-0.30334473
-0.30273438
-0.30181885
-0.30090332
-0.29937744
-0.29785156
-0.29632568
-0.2947998
-0.29327393
-0.29205322
-0.2911377
-0.29052734
-0.28991699
-0.28961182
-0.28961182
-0.28900146
-0.28869629
-0.28839111
-0.28808594
-0.28778076
-0.28778076
-0.28778076
-0.28778076
-0.28747559
-0.28747559
-0.28717041
-0.28686523
-0.28656006
-0.28656006
-0.28625488
-0.28625488
-0.28625488
-0.28625488
-0.28625488
-0.28656006
-0.28717041
-0.28747559
-0.28778076
-0.28808594
-0.28778076
-0.28747559
-0.28686523
-0.28625488
-0.28564453
-0.28442383
-0.2835083
-0.2822876
-0.28106689
-0.28015137
-0.27923584
-0.27832031
-0.27770996
-0.27740479
-0.27709961
-0.27709961
-0.27709961
-0.27740479
-0.27801514
-0.27832031
-0.27862549
-0.27862549
-0.27862549
-0.27893066
-0.27862549
-0.27832031
-0.27770996
-0.27709961
-0.27618408
-0.27526855
-0.2746582
-0.27404785
-0.27313232
-0.27252197
-0.27160645
-0.27038574
-0.26947021
-0.26855469
-0.26763916
-0.26702881
-0.26611328
-0.26550293
-0.2645874
-0.26367188
-0.26275635
-0.26153564
-0.26031494
-0.25878906
-0.25756836
-0.25604248
-0.2545166
-0.2532959
-0.2520752
-0.25115967
-0.24993896
-0.24902344
-0.24810791
-0.24749756
-0.24658203
-0.24597168
-0.24505615
-0.24414062
-0.24353027
-0.24261475
-0.24200439
-0.24139404
-0.24078369
-0.24017334
-0.23925781
-0.23803711
-0.23651123
-0.23498535
-0.2331543
-0.23132324
-0.22949219
-0.22735596
-0.22491455
-0.22216797
-0.21911621
-0.2154541
-0.21179199
-0.20782471
-0.20385742
-0.19989014
-0.19592285
-0.19195557
-0.18829346
-0.18463135
-0.18127441
-0.17822266
-0.1751709
-0.17242432
-0.16967773
-0.1675415
-0.16540527
-0.16357422
-0.16174316
-0.16021729
-0.15838623
-0.15655518
-0.15472412
-0.15258789
-0.15014648
-0.1473999
-0.14465332
-0.14160156
-0.13793945
-0.13427734
-0.13000488
-0.12512207
-0.12023926
-0.11505127
-0.10955811
-0.10406494
-0.098876953
-0.093383789
-0.087890625
-0.082702637
-0.077514648
-0.072631836
-0.068054199
-0.063476562
-0.059509277
-0.055541992
-0.051879883
-0.048828125
-0.045776367
-0.043029785
-0.040283203
-0.037841797
-0.035400391
-0.032958984
-0.030212402
-0.02746582
-0.024719238
-0.021972656
-0.019226074
-0.016479492
-0.01373291
-0.011291504
-0.0088500977
-0.0064086914
-0.0045776367
-0.002746582
-0.0015258789
-0.00061035156
-0.00030517578
0
0
-0.00061035156
-0.0015258789
-0.0024414062
-0.0039672852
-0.0061035156
-0.0085449219
-0.01159668
-0.014648438
-0.017700195
-0.021057129
-0.024719238
-0.028991699
-0.033569336
-0.038757324
-0.044250488
-0.050354004
-0.057067871
-0.064086914
-0.071716309
-0.079650879
-0.087585449
-0.09552002
-0.10375977
-0.11230469
-0.12084961
-0.12939453
-0.13793945
-0.14648438
-0.1550293
-0.16387939
-0.17272949
-0.18157959
-0.19012451
-0.19897461
-0.20782471
-0.2166748
-0.22583008
-0.23468018
-0.24353027
-0.2520752
-0.26062012
-0.26916504
-0.27770996
-0.28564453
-0.2935791
-0.3012085
-0.30822754
-0.31463623
-0.32073975
-0.32623291
-0.3314209
-0.33599854
-0.34057617
-0.34454346
-0.34851074
-0.35186768
-0.35552979
-0.35858154
-0.3616333
-0.36468506
-0.36743164
-0.36987305
-0.37261963
-0.37506104
-0.37719727
-0.3793335
-0.38085938
-0.38238525
-0.38330078
-0.38360596
-0.38421631
-0.38452148
-0.38452148
-0.38452148
-0.38452148
-0.38452148
-0.38421631
-0.38391113
-0.38360596
-0.38391113
-0.38421631
-0.38452148
-0.38543701
-0.38604736
-0.38696289
-0.38787842
-0.38879395
-0.39001465
-0.39093018
-0.3918457
-0.39245605
-0.39276123
-0.39276123
-0.39276123
-0.39276123
-0.39245605
-0.39215088
-0.39154053
-0.390625
-0.3894043
-0.38848877
-0.38757324
-0.38696289
-0.38635254
-0.38604736
-0.38574219
-0.38543701
-0.38543701
-0.38543701
-0.38543701
-0.38543701
-0.38574219
-0.38574219
-0.38604736
-0.38635254
-0.38665771
-0.38665771
-0.38696289
-0.38696289
-0.38696289
-0.38696289
-0.38696289
-0.38696289
-0.38696289
-0.38726807
-0.38726807
-0.38757324
-0.38757324
-0.38757324
-0.38726807
-0.38726807
-0.38726807
-0.38726807
-0.38726807
-0.38696289
-0.38696289
-0.38665771
-0.38604736
-0.38543701
-0.38513184
-0.38482666
-0.38421631
-0.38391113
-0.38330078
-0.38238525
-0.38146973
-0.3805542
-0.37994385
-0.37902832
-0.37872314
-0.37872314
-0.37872314
-0.37902832
-0.37963867
-0.37994385
-0.3805542
-0.38116455
-0.38146973
-0.38238525
-0.38360596
-0.38482666
-0.38604736
-0.38665771
-0.38726807
-0.38726807
-0.38696289
-0.38635254
-0.38574219
-0.38452148
-0.38360596
-0.38269043
-0.38146973
-0.38024902
-0.37872314
-0.37719727
-0.37567139
-0.37414551
-0.37322998
-0.37231445
-0.37139893
-0.37109375
-0.37078857
-0.37017822
-0.36987305
-0.3692627
-0.36895752
-0.36834717
-0.36804199
-0.36743164
-0.36682129
-0.36590576
-0.36499023
-0.36376953
-0.362854
-0.36193848
-0.36132812
-0.36071777
-0.36010742
-0.36010742
-0.36010742
-0.3604126
-0.36071777
-0.36132812
-0.36193848
-0.362854
-0.36346436
-0.36437988
-0.36529541
-0.36621094
-0.36712646
-0.36804199
-0.36895752
-0.36956787
-0.37017822
-0.37078857
-0.37139893
-0.3717041
-0.3717041
-0.37139893
-0.37139893
-0.37109375
-0.37078857
-0.3704834
-0.37017822
-0.36987305
-0.3692627
-0.36895752
-0.36834717
-0.36773682
-0.36651611
-0.36529541
-0.36376953
-0.36224365
-0.36071777
-0.35949707
-0.35827637
-0.35705566
-0.35644531
-0.35583496
-0.35583496
-0.35583496
-0.35583496
-0.35644531
-0.35705566
-0.35797119
-0.35919189
-0.36010742
-0.36132812
-0.36254883
-0.36407471
-0.36529541
-0.36682129
-0.36773682
-0.36865234
-0.36895752
-0.36895752
-0.36865234
-0.36834717
-0.36743164
-0.36682129
-0.36621094
-0.36529541
-0.36468506
-0.36407471
-0.36346436
-0.362854
-0.36254883
-0.36254883
-0.36224365
-0.36224365
-0.36224365
-0.36254883
-0.362854
-0.36315918
-0.36346436
-0.36346436
-0.36407471
-0.36468506
-0.36529541
-0.36621094
-0.36682129
-0.36712646
-0.36743164
-0.36712646
-0.36712646
-0.36682129
-0.36651611
-0.36621094
-0.36590576
-0.36560059
-0.36529541
-0.36437988
-0.36376953
-0.362854
-0.36193848
-0.36132812
-0.36071777
-0.36010742
-0.35980225
-0.35949707
-0.35919189
-0.35919189
-0.35919189
-0.35949707
-0.35980225
-0.3604126
-0.36071777
-0.36102295
-0.36132812
-0.36193848
-0.36254883
-0.362854
-0.36315918
-0.36315918
-0.36315918
-0.362854
-0.36254883
-0.36254883
-0.362854
-0.36346436
-0.36437988
-0.36499023
-0.36590576
-0.36621094
-0.36682129
-0.36712646
-0.36743164
-0.36773682
-0.36834717
-0.3692627
-0.36987305
-0.3704834
-0.37078857
-0.37078857
-0.3704834
-0.37017822
-0.36956787
-0.36895752
-0.36804199
-0.36743164
-0.36682129
-0.36590576
-0.36529541
-0.36468506
-0.36437988
-0.36437988
-0.36437988
-0.36468506
-0.36499023
-0.36560059
-0.36621094
-0.36682129
-0.36743164
-0.36773682
-0.36804199
-0.36865234
-0.3692627
-0.36956787
-0.36956787
-0.36895752
-0.36773682
-0.36682129
-0.36560059
-0.36437988
-0.36346436
-0.36254883
-0.36132812
-0.3604126
-0.35980225
-0.35919189
-0.35888672
-0.35888672
-0.35919189
-0.35980225
-0.36071777
-0.3616333
-0.36315918
-0.36437988
-0.36529541
-0.36621094
-0.36651611
-0.36682129
-0.36712646
-0.36743164
-0.36743164
-0.36712646
-0.36651611
-0.36560059
-0.36468506
-0.36346436
-0.36254883
-0.36193848
-0.3616333
-0.36132812
-0.36102295
-0.36071777
-0.36010742
-0.35949707
-0.35919189
-0.35858154
-0.35797119
-0.35736084
-0.35675049
-0.35583496
-0.35491943
-0.35339355
-0.35186768
-0.35003662
-0.34790039
-0.34576416
-0.34332275
-0.34057617
-0.33782959
-0.33477783
-0.33172607
-0.32836914
-0.32531738
-0.32226562
-0.31921387
-0.31646729
-0.31402588
-0.31158447
-0.30883789
-0.30639648
-0.30334473
-0.30059814
-0.29754639
-0.29449463
-0.29174805
-0.28900146
-0.28686523
-0.284729
-0.28289795
-0.28076172
-0.27893066
-0.27679443
-0.27496338
-0.2734375
-0.27191162
-0.27099609
-0.27008057
-0.26977539
-0.26947021
-0.26977539
-0.27008057
-0.27069092
-0.27130127
-0.2722168
-0.27313232
-0.27404785
-0.27496338
-0.27648926
-0.27832031
-0.28015137
-0.28198242
-0.28411865
-0.28625488
-0.28869629
-0.29144287
-0.29449463
-0.29785156
-0.30181885
-0.30578613
-0.31005859
-0.31463623
-0.31921387
-0.3237915
-0.32867432
-0.33355713
-0.33843994
-0.34301758
-0.34729004
-0.35125732
-0.35491943
-0.35827637
-0.36102295
-0.36346436
-0.36529541
-0.36712646
-0.36834717
-0.36956787
-0.37017822
-0.37078857
-0.37139893
-0.3717041
-0.37231445
-0.37261963
-0.37322998
-0.37414551
-0.37506104
-0.37597656
-0.37750244
-0.3793335
-0.38146973
-0.38360596
-0.38574219
-0.38757324
-0.3894043
-0.39093018
-0.39215088
-0.39306641
-0.39398193
-0.39489746
-0.39520264
-0.39489746
-0.39428711
-0.39337158
-0.39245605
-0.39123535
-0.39001465
-0.38848877
-0.38726807
-0.38604736
-0.38452148
-0.38360596
-0.38238525
-0.3817749
-0.38116455
-0.38085938
-0.38085938
-0.38116455
-0.3817749
-0.38238525
-0.38299561
-0.38391113
-0.38452148
-0.38513184
-0.38574219
-0.38665771
-0.38726807
-0.38818359
-0.38909912
-0.38970947
-0.39001465
-0.39031982
-0.39001465
-0.38970947
-0.38879395
-0.38787842
-0.38665771
-0.38574219
-0.38452148
-0.38330078
-0.38208008
-0.3805542
-0.3793335
-0.37811279
-0.37719727
-0.37628174
-0.37536621
-0.37475586
-0.37445068
-0.37445068
-0.37475586
-0.37506104
-0.37567139
-0.37628174
-0.37689209
-0.37780762
-0.37841797
-0.37902832
-0.37902832
-0.37902832
-0.37872314
-0.37841797
-0.37780762
-0.37750244
-0.37719727
-0.37689209
-0.37658691
-0.37567139
-0.37475586
-0.37353516
-0.37231445
-0.3717041
-0.37109375
-0.37078857
-0.37078857
-0.37078857
-0.37078857
-0.37078857
-0.3704834
-0.36987305
-0.36956787
-0.36895752
-0.36865234
-0.36804199
-0.36773682
-0.36743164
-0.36712646
-0.36651611
-0.36590576
-0.36529541
-0.36437988
-0.36376953
-0.362854
-0.36193848
-0.36102295
-0.36010742
-0.35949707
-0.35858154
-0.35766602
-0.35705566
-0.35644531
-0.35583496
-0.35583496
-0.35614014
-0.35675049
-0.35766602
-0.35919189
-0.36102295
-0.36315918
-0.36529541
-0.36773682
-0.36956787
-0.37078857
-0.37200928
-0.37261963
-0.3729248
-0.37231445
-0.37078857
-0.36865234
-0.36560059
-0.36193848
-0.35736084
-0.35186768
-0.34545898
-0.33813477
-0.32989502
-0.32073975
-0.31097412
-0.30029297
-0.28869629
-0.27557373
-0.26092529
-0.24414062
-0.22460938
-0.20233154
-0.17608643
-0.1461792
-0.11260986
-0.075378418
-0.035705566
0.0054931641
0.047302246
0.088806152
0.12939453
0.16815186
0.20385742
0.23529053
0.26153564
0.28045654
0.29144287
0.29327393
0.28564453
0.26824951
0.24139404
0.2053833
0.16174316
0.11108398
0.054931641
-0.0051879883
-0.068054199
-0.13214111
-0.19622803
-0.25878906
-0.31829834
-0.37384033
-0.42449951
-0.46905518
-0.50720215
-0.5380249
-0.56182861
-0.57830811
-0.58807373
-0.59143066
-0.58929443
-0.58197021
-0.57037354
-0.55511475
-0.53710938
-0.51696777
-0.49560547
-0.47332764
-0.4510498
-0.42907715
-0.40771484
-0.38787842
-0.3692627
-0.3527832
-0.33843994
-0.32653809
-0.31707764
-0.30975342
-0.30456543
-0.30151367
-0.29968262
-0.29937744
-0.29998779
-0.30151367
-0.3036499
-0.30578613
-0.30822754
-0.31036377
-0.31219482
-0.3137207
-0.31463623
-0.31524658
-0.31524658
-0.31463623
-0.31341553
-0.31188965
-0.31005859
-0.30822754
-0.30639648
-0.30426025
-0.3024292
-0.30090332
-0.29937744
-0.29846191
-0.29785156
-0.29724121
-0.29693604
-0.29663086
-0.29663086
-0.29693604
-0.29754639
-0.29785156
-0.29846191
-0.29876709
-0.29907227
-0.29907227
-0.29907227
-0.29876709
-0.29846191
-0.29815674
-0.29754639
-0.29663086
-0.29602051
-0.2947998
-0.29388428
-0.29296875
-0.29174805
-0.29052734
-0.28961182
-0.28869629
-0.28778076
-0.28717041
-0.28656006
-0.28625488
-0.28594971
-0.28594971
-0.28594971
-0.28594971
-0.28594971
-0.28564453
-0.28564453
-0.28533936
-0.28503418
-0.28503418
-0.284729
-0.284729
-0.28442383
-0.28381348
-0.28289795
-0.28198242
-0.28076172
-0.27954102
-0.27862549
-0.27740479
-0.27648926
-0.27587891
-0.27557373
-0.27526855
-0.27526855
-0.2746582
-0.27374268
-0.27282715
-0.27160645
-0.27069092
-0.26947021
-0.26824951
-0.26702881
-0.26580811
-0.2645874
-0.26306152
-0.26123047
-0.25970459
-0.25787354
-0.25604248
-0.25421143
-0.25268555
-0.25085449
-0.24932861
-0.24810791
-0.24688721
-0.24627686
-0.2456665
-0.24505615
-0.24475098
-0.2444458
-0.24383545
-0.24353027
-0.24291992
-0.24261475
-0.24230957
-0.24230957
-0.24200439
-0.24139404
-0.24078369
-0.23956299
-0.23864746
-0.23773193
-0.23681641
-0.2355957
-0.23406982
-0.23254395
-0.23040771
-0.22766113
-0.22491455
-0.22186279
-0.21850586
-0.21514893
-0.21148682
-0.20782471
-0.2041626
-0.20050049
-0.19683838
-0.19348145
-0.18981934
-0.1864624
-0.18310547
-0.18035889
-0.1776123
-0.1751709
-0.17272949
-0.17089844
-0.16906738
-0.16723633
-0.16571045
-0.16418457
-0.16265869
-0.16113281
-0.15960693
-0.15777588
-0.15594482
-0.15380859
-0.15167236
-0.14953613
-0.1473999
-0.1449585
-0.14221191
-0.13916016
-0.1361084
-0.13275146
-0.12939453
-0.12573242
-0.12176514
-0.11749268
-0.11322021
-0.10864258
-0.10406494
-0.099182129
-0.094604492
-0.090026855
-0.085144043
-0.08026123
-0.075378418
-0.07019043
-0.065307617
-0.060424805
-0.055541992
-0.051269531
-0.047302246
-0.043640137
-0.039978027
-0.036315918
-0.032958984
-0.029296875
-0.025939941
-0.022888184
-0.019836426
-0.016784668
-0.01373291
-0.010375977
-0.0067138672
-0.0033569336
0.00061035156
0.0045776367
0.0082397461
0.012207031
0.015869141
0.019836426
0.023498535
0.027160645
0.030517578
0.034179688
0.037536621
0.040588379
0.043640137
0.046081543
0.048217773
0.049743652
0.05065918
0.051574707
0.051879883
0.052185059
0.052185059
0.051879883
0.051574707
0.05065918
0.050048828
0.048828125
0.04699707
0.045166016
0.043029785
0.040283203
0.037231445
0.034179688
0.030212402
0.025939941
0.021362305
0.016174316
0.010986328
0.0048828125
-0.0015258789
-0.0085449219
-0.016174316
-0.024414062
-0.032958984
-0.042114258
-0.051269531
-0.06072998
-0.069885254
-0.079040527
-0.088500977
-0.09765625
-0.1071167
-0.11688232
-0.12634277
-0.13519287
-0.14404297
-0.15289307
-0.16113281
-0.16937256
-0.17730713
-0.18463135
-0.19195557
-0.19897461
-0.20568848
-0.21209717
-0.21850586
-0.22491455
-0.23101807
-0.23712158
-0.24291992
-0.24871826
-0.2545166
-0.26000977
-0.26550293
-0.27069092
-0.27587891
-0.28137207
-0.28625488
-0.2911377
-0.29602051
-0.30059814
-0.30487061
-0.30883789
-0.3125
-0.31585693
-0.31860352
-0.32104492
-0.32318115
-0.32501221
-0.32653809
-0.32714844
-0.32775879
-0.32745361
-0.32714844
-0.32684326
-0.32623291
-0.32592773
-0.32531738
-0.32470703
-0.32409668
-0.3237915
-0.32348633
-0.32348633
-0.32318115
-0.32318115
-0.32348633
-0.32409668
-0.32440186
-0.32501221
-0.32531738
-0.32531738
-0.32562256
-0.32531738
-0.32501221
-0.32440186
-0.3237915
-0.32287598
-0.32196045
-0.32104492
-0.31951904
-0.31799316
-0.31616211
-0.31463623
-0.31311035
-0.31188965
-0.31097412
-0.30975342
-0.30853271
-0.30731201
-0.30639648
-0.30548096
-0.30487061
-0.30395508
-0.30303955
-0.30212402
-0.30151367
-0.30059814
-0.29968262
-0.29907227
-0.29815674
-0.29724121
-0.29632568
-0.29571533
-0.29510498
-0.29449463
-0.29388428
-0.2935791
-0.29327393
-0.29296875
-0.29266357
-0.2923584
-0.29205322
-0.29174805
-0.2911377
-0.29083252
-0.29052734
-0.29022217
-0.28991699
-0.28961182
-0.28900146
-0.28839111
-0.28778076
-0.28656006
-0.28533936
-0.28442383
-0.2835083
-0.28259277
-0.28198242
-0.28137207
-0.28045654
-0.27984619
-0.27923584
-0.27832031
-0.27770996
-0.27709961
-0.27648926
-0.27587891
-0.27557373
-0.27526855
-0.27526855
-0.27496338
-0.27496338
-0.2746582
-0.2746582
-0.27435303
-0.27374268
-0.27374268
-0.2734375
-0.2734375
-0.27313232
-0.27252197
-0.27191162
-0.27069092
-0.26947021
-0.26855469
-0.26733398
-0.26611328
-0.26489258
-0.2633667
-0.26184082
-0.25970459
-0.25787354
-0.2557373
-0.25390625
-0.25177002
-0.24993896
-0.24810791
-0.24627686
-0.24475098
-0.2432251
-0.24169922
-0.24078369
-0.23986816
-0.23956299
-0.23956299
-0.24017334
-0.24078369
-0.24169922
-0.24261475
-0.2432251
-0.24383545
-0.24414062
-0.24383545
-0.24383545
-0.24353027
-0.2432251
-0.24291992
-0.24200439
-0.24108887
-0.23956299
-0.23803711
-0.23651123
-0.23468018
-0.23345947
-0.23193359
-0.23071289
-0.22918701
-0.22827148
-0.22735596
-0.22674561
-0.22674561
-0.22705078
-0.22735596
-0.22766113
-0.22827148
-0.22888184
-0.22918701
-0.22979736
-0.23010254
-0.23040771
-0.23071289
-0.23071289
-0.23071289
-0.23010254
-0.22949219
-0.22888184
-0.22796631
-0.22705078
-0.22613525
-0.22521973
-0.2243042
-0.22277832
-0.22125244
-0.21972656
-0.21789551
-0.21636963
-0.21484375
-0.21362305
-0.21270752
-0.21148682
-0.21057129
-0.20996094
-0.20935059
-0.20904541
-0.20904541
-0.20935059
-0.21026611
-0.21087646
-0.21179199
-0.21270752
-0.21392822
-0.21514893
-0.2166748
-0.21789551
-0.21911621
-0.22003174
-0.22094727
-0.22186279
-0.22216797
-0.22247314
-0.22247314
-0.22216797
-0.22155762
-0.22064209
-0.21972656
-0.21850586
-0.21728516
-0.21575928
-0.2142334
-0.21270752
-0.21148682
-0.21026611
-0.20935059
-0.20874023
-0.20812988
-0.20812988
-0.20782471
-0.20782471
-0.20812988
-0.20843506
-0.20874023
-0.20935059
-0.20996094
-0.21057129
-0.21118164
-0.21179199
-0.21270752
-0.21331787
-0.21392822
-0.21453857
-0.21484375
-0.21514893
-0.21514893
-0.21514893
-0.21514893
-0.21453857
-0.2142334
-0.21362305
-0.2130127
-0.21270752
-0.21270752
-0.21270752
-0.21270752
-0.21270752
-0.21209717
-0.21148682
-0.21118164
-0.21057129
-0.20996094
-0.20935059
-0.20904541
-0.20843506
-0.20782471
-0.20751953
-0.20690918
-0.20629883
-0.20568848
-0.20477295
-0.20385742
-0.20294189
-0.20233154
-0.20202637
-0.20172119
-0.20172119
-0.20202637
-0.20263672
-0.20355225
-0.20477295
-0.20568848
-0.20690918
-0.20782471
-0.20874023
-0.20965576
-0.21057129
-0.21148682
-0.21240234
-0.21331787
-0.2142334
-0.21514893
-0.21606445
-0.21636963
-0.21636963
-0.21575928
-0.21484375
-0.21392822
-0.21270752
-0.21209717
-0.21148682
-0.21087646
-0.21057129
-0.20996094
-0.20935059
-0.20874023
-0.20812988
-0.20751953
-0.20690918
-0.206604
-0.20690918
-0.20721436
-0.20751953
-0.20843506
-0.20904541
-0.20996094
-0.21087646
-0.21179199
-0.21240234
-0.21331787
-0.2142334
-0.21484375
-0.21514893
-0.21575928
-0.21606445
-0.2166748
-0.21697998
-0.21697998
-0.21697998
-0.2166748
-0.21606445
-0.2154541
-0.21484375
-0.21453857
-0.21392822
-0.2130127
-0.21240234
-0.21179199
-0.21118164
-0.21087646
-0.21087646
-0.21026611
-0.20996094
-0.20935059
-0.20874023
-0.20874023
-0.20874023
-0.20904541
-0.20935059
-0.20996094
-0.21026611
-0.21057129
-0.21057129
-0.21087646
-0.21087646
-0.21118164
-0.21118164
-0.21148682
-0.21179199
-0.21209717
-0.21209717
-0.21209717
-0.21209717
-0.21179199
-0.21179199
-0.21209717
-0.21240234
-0.21270752
-0.21331787
-0.21392822
-0.21453857
-0.21514893
-0.21575928
-0.21636963
-0.2166748
-0.21697998
-0.21728516
-0.21728516
-0.21728516
-0.21728516
-0.21697998
-0.21636963
-0.2154541
-0.21484375
-0.21392822
-0.2130127
-0.21209717
-0.21148682
-0.21057129
-0.21026611
-0.20996094
-0.20965576
-0.20965576
-0.20935059
-0.20904541
-0.20904541
-0.20935059
-0.20996094
-0.21057129
-0.21148682
-0.21209717
-0.21240234
-0.21270752
-0.2130127
-0.21362305
-0.2142334
-0.21453857
-0.21453857
-0.21453857
-0.2142334
-0.21362305
-0.21331787
-0.21331787
-0.21331787
-0.2130127
-0.2130127
-0.21240234
-0.21179199
-0.21118164
-0.21026611
-0.20935059
-0.20874023
-0.20843506
-0.20812988
-0.20782471
-0.20782471
-0.20751953
-0.20751953
-0.20751953
-0.20721436
-0.20690918
-0.206604
-0.20599365
-0.20568848
-0.20507812
-0.20477295
-0.20477295
-0.20446777
-0.20446777
-0.20446777
-0.20446777
-0.20477295
-0.20507812
-0.20568848
-0.20629883
-0.20690918
-0.20721436
-0.20782471
-0.20812988
-0.20874023
-0.20935059
-0.20996094
-0.21057129
-0.21118164
-0.21148682
-0.21179199
-0.21148682
-0.21118164
-0.21087646
-0.20996094
-0.20935059
-0.20904541
-0.20843506
-0.20782471
-0.20721436
-0.20690918
-0.20690918
-0.206604
-0.20629883
-0.20599365
-0.20568848
-0.2053833
-0.2053833
-0.20568848
-0.20599365
-0.20629883
-0.20690918
-0.20721436
-0.20812988
-0.20874023
-0.20965576
-0.21026611
-0.21118164
-0.21179199
-0.21270752
-0.21362305
-0.21453857
-0.2154541
-0.21575928
-0.2154541
-0.21484375
-0.21362305
-0.21209717
-0.21057129
-0.20904541
-0.20751953
-0.20599365
-0.2041626
-0.20202637
-0.20019531
-0.19836426
-0.1965332
-0.1953125
-0.19439697
-0.19378662
-0.19348145
-0.19378662
-0.19439697
-0.19561768
-0.19714355
-0.19866943
-0.20050049
-0.20263672
-0.20477295
-0.206604
-0.20874023
-0.21026611
-0.21148682
-0.21240234
-0.2130127
-0.2130127
-0.2130127
-0.21270752
-0.21209717
-0.21118164
-0.21057129
-0.20965576
-0.20874023
-0.20782471
-0.206604
-0.20568848
-0.20507812
-0.20446777
-0.2041626
-0.20385742
-0.2041626
-0.2041626
-0.20446777
-0.20477295
-0.20507812
-0.20568848
-0.20629883
-0.206604
-0.20690918
-0.20690918
-0.20690918
-0.20690918
-0.20721436
-0.20751953
-0.20782471
-0.20782471
-0.20782471
-0.20782471
-0.20782471
-0.20782471
-0.20782471
-0.20782471
-0.20812988
-0.20843506
-0.20843506
-0.20874023
-0.20843506
-0.20843506
-0.20812988
-0.20751953
-0.20690918
-0.20599365
-0.20507812
-0.20446777
-0.20355225
-0.20263672
-0.20202637
-0.20172119
-0.20111084
-0.20080566
-0.20050049
-0.20019531
-0.20050049
-0.20080566
-0.20172119
-0.20233154
-0.20324707
-0.20385742
-0.2041626
-0.20446777
-0.20446777
-0.20446777
-0.20446777
-0.2041626
-0.20355225
-0.20294189
-0.20202637
-0.20080566
-0.19927979
-0.19775391
-0.19622803
-0.19439697
-0.19256592
-0.19073486
-0.18890381
-0.18707275
-0.18493652
-0.18249512
-0.18005371
-0.17730713
-0.17456055
-0.17181396
-0.16906738
-0.16601562
-0.16296387
-0.15991211
-0.15686035
-0.15380859
-0.15106201
-0.14831543
-0.14556885
-0.14312744
-0.14068604
-0.1385498
-0.13671875
-0.1348877
-0.13336182
-0.13183594
-0.13061523
-0.12908936
-0.12817383
-0.1272583
-0.12634277
-0.12573242
-0.12512207
-0.12481689
-0.12481689
-0.12512207
-0.12573242
-0.1260376
-0.12634277
-0.12664795
-0.1272583
-0.12786865
-0.128479
-0.12939453
-0.13061523
-0.13214111
-0.13366699
-0.13519287
-0.13671875
-0.13793945
-0.13946533
-0.14129639
-0.14312744
-0.14526367
-0.14801025
-0.15106201
-0.15441895
-0.15808105
-0.16174316
-0.16571045
-0.16967773
-0.17333984
-0.17700195
-0.18066406
-0.184021
-0.18707275
-0.19012451
-0.19287109
-0.19561768
-0.19775391
-0.19958496
-0.20141602
-0.20263672
-0.20385742
-0.20477295
-0.20568848
-0.206604
-0.20782471
-0.20874023
-0.20996094
-0.21148682
-0.2130127
-0.21453857
-0.21606445
-0.21759033
-0.21911621
-0.22064209
-0.22216797
-0.22399902
-0.2255249
-0.22705078
-0.22857666
-0.23010254
-0.23162842
-0.23284912
-0.23406982
-0.23498535
-0.23590088
-0.23651123
-0.23681641
-0.23712158
-0.23742676
-0.23742676
-0.23742676
-0.23681641
-0.23590088
-0.23498535
-0.23376465
-0.23223877
-0.23101807
-0.22949219
-0.22827148
-0.22674561
-0.22521973
-0.22338867
-0.22216797
-0.22094727
-0.22003174
-0.21942139
-0.21942139
-0.21942139
-0.21942139
-0.22003174
-0.22033691
-0.22094727
-0.22155762
-0.22216797
-0.22277832
-0.22338867
-0.22399902
-0.22399902
-0.22399902
-0.22338867
-0.22247314
-0.22155762
-0.22033691
-0.21942139
-0.21850586
-0.21759033
-0.2166748
-0.2154541
-0.2142334
-0.2130127
-0.21148682
-0.21026611
-0.20935059
-0.20843506
-0.20782471
-0.20721436
-0.20690918
-0.20629883
-0.20599365
-0.2053833
-0.20507812
-0.20477295
-0.20477295
-0.20507812
-0.20507812
-0.2053833
-0.20599365
-0.20629883
-0.206604
-0.20690918
-0.20721436
-0.20751953
-0.20782471
-0.20812988
-0.20812988
-0.20812988
-0.20782471
-0.20751953
-0.20721436
-0.206604
-0.20629883
-0.20568848
-0.20507812
-0.20477295
-0.20446777
-0.2041626
-0.2041626
-0.20385742
-0.20385742
-0.20355225
-0.20385742
-0.2041626
-0.20477295
-0.20568848
-0.20690918
-0.20782471
-0.20904541
-0.21026611
-0.21148682
-0.21240234
-0.21331787
-0.2142334
-0.21484375
-0.21514893
-0.21484375
-0.2142334
-0.21331787
-0.21148682
-0.20935059
-0.20690918
-0.20355225
-0.19989014
-0.1953125
-0.19042969
-0.18432617
-0.1776123
-0.16998291
-0.16113281
-0.15075684
-0.13824463
-0.12359619
-0.10620117
-0.085144043
-0.060424805
-0.032043457
0.00091552734
0.037536621
0.077819824
0.12054443
0.16448975
0.20935059
0.25421143
0.29846191
0.34088135
0.3805542
0.41534424
0.44433594
0.46600342
0.47912598
0.48248291
0.47607422
0.45959473
0.43304443
0.39733887
0.3527832
0.30090332
0.24200439
0.17822266
0.11077881
0.04119873
-0.028686523
-0.097045898
-0.16296387
-0.2243042
-0.28076172
-0.33050537
-0.37322998
-0.4083252
-0.43548584
-0.45440674
-0.46569824
-0.46905518
-0.46539307
-0.45501709
-0.43945312
-0.41931152
-0.39550781
-0.36956787
-0.34210205
-0.31433105
-0.28686523
-0.26000977
-0.23498535
-0.21209717
-0.19134521
-0.17333984
-0.15808105
-0.14587402
-0.13641357
-0.12939453
-0.12512207
-0.12268066
-0.12237549
-0.12359619
-0.12573242
-0.12908936
-0.13305664
-0.1373291
-0.14190674
-0.1461792
-0.15075684
-0.1550293
-0.15899658
-0.16235352
-0.16540527
-0.16784668
-0.16998291
-0.17181396
-0.17272949
-0.17333984
-0.17333984
-0.17242432
-0.17120361
-0.16967773
-0.16784668
-0.16601562
-0.16357422
-0.16143799
-0.15899658
-0.15625
-0.15380859
-0.15167236
-0.14953613
-0.14801025
-0.14678955
-0.1461792
-0.14556885
-0.14526367
-0.1449585
-0.1449585
-0.1449585
-0.14526367
-0.14556885
-0.14587402
-0.14648438
-0.14709473
-0.1473999
-0.14801025
-0.14831543
-0.14862061
-0.14923096
-0.14984131
-0.15045166
-0.15075684
-0.15106201
-0.15136719
-0.15167236
-0.15197754
-0.15197754
-0.15228271
-0.15228271
-0.15197754
-0.15167236
-0.15106201
-0.15014648
-0.14892578
-0.14770508
-0.14648438
-0.14526367
-0.14373779
-0.14282227
-0.14160156
-0.14038086
-0.13946533
-0.1385498
-0.13763428
-0.13702393
-0.13641357
-0.1361084
-0.13580322
-0.13549805
-0.13549805
-0.13549805
-0.13580322
-0.13580322
-0.1361084
-0.13641357
-0.13671875
-0.13671875
-0.13671875
-0.13671875
-0.13641357
-0.13641357
-0.1361084
-0.13580322
-0.13519287
-0.13458252
-0.13366699
-0.13275146
-0.13183594
-0.13061523
-0.12939453
-0.12786865
-0.1260376
-0.12420654
-0.12237549
-0.12054443
-0.11871338
-0.11688232
-0.11505127
-0.11322021
-0.11169434
-0.11047363
-0.10925293
-0.10803223
-0.1071167
-0.10650635
-0.10559082
-0.10437012
-0.10345459
-0.10253906
-0.10131836
-0.10009766
-0.098876953
-0.09765625
-0.096740723
-0.09552002
-0.094604492
-0.093688965
-0.092773438
-0.091552734
-0.090026855
-0.088806152
-0.087280273
-0.08605957
-0.085144043
-0.084533691
-0.083618164
-0.083007812
-0.082092285
-0.081481934
-0.08026123
-0.079040527
-0.077514648
-0.075378418
-0.073547363
-0.071411133
-0.069274902
-0.06652832
-0.063476562
-0.060119629
-0.05645752
-0.052490234
-0.048828125
-0.04486084
-0.04119873
-0.037536621
-0.033874512
-0.030212402
-0.025939941
-0.021972656
-0.018005371
-0.014343262
-0.010681152
-0.0076293945
-0.0051879883
-0.002746582
-0.00091552734
0.0012207031
0.0036621094
0.0061035156
0.0088500977
0.01159668
0.014648438
0.017700195
0.021057129
0.024414062
0.028076172
0.032043457
0.036010742
0.040588379
0.04486084
0.049438477
0.053710938
0.057983398
0.062255859
0.066833496
0.071105957
0.075378418
0.079650879
0.083618164
0.087585449
0.091247559
0.094604492
0.098266602
0.10162354
0.10467529
0.10803223
0.11108398
0.11444092
0.11779785
0.12084961
0.12420654
0.1272583
0.13000488
0.13244629
0.1348877
0.1373291
0.13946533
0.14160156
0.14312744
0.14434814
0.14556885
0.1461792
0.14648438
0.14648438
0.1461792
0.1461792
0.14587402
0.14556885
0.14465332
0.14373779
0.14221191
0.14007568
0.13763428
0.1348877
0.13183594
0.128479
0.12451172
0.11993408
0.11505127
0.10986328
0.10437012
0.098876953
0.093078613
0.086975098
0.080566406
0.073547363
0.066223145
0.05859375
0.05065918
0.042724609
0.034179688
0.025634766
0.01739502
0.0088500977
0.00030517578
-0.0085449219
-0.017089844
-0.026245117
-0.035705566
-0.045166016
-0.054626465
-0.064086914
-0.073242188
-0.082397461
-0.090942383
-0.099182129
-0.1071167
-0.11474609
-0.12176514
-0.128479
-0.1348877
-0.14099121
-0.14648438
-0.15167236
-0.15655518
-0.16113281
-0.16571045
-0.16967773
-0.1739502
-0.1776123
-0.18127441
-0.18463135
-0.18768311
-0.19104004
-0.19378662
-0.1965332
-0.19897461
-0.20141602
-0.20385742
-0.20629883
-0.20843506
-0.21057129
-0.21270752
-0.21514893
-0.21789551
-0.22033691
-0.22277832
-0.22491455
-0.22674561
-0.22827148
-0.22949219
-0.23071289
-0.23162842
-0.23254395
-0.2331543
-0.23376465
-0.23376465
-0.23376465
-0.23345947
-0.23284912
-0.23193359
-0.23101807
-0.22979736
-0.22857666
-0.22766113
-0.22674561
-0.22613525
-0.22583008
-0.2255249
-0.22521973
-0.22491455
-0.22460938
-0.2243042
-0.2243042
-0.2243042
-0.2243042
-0.22399902
-0.22369385
-0.22338867
-0.22277832
-0.22216797
-0.22125244
-0.22033691
-0.21972656
-0.21911621
-0.21850586
-0.21789551
-0.21728516
-0.21697998
-0.2166748
-0.21636963
-0.21575928
-0.21514893
-0.21453857
-0.21392822
-0.21392822
-0.21392822
-0.21362305
-0.21362305
-0.21331787
-0.2130127
-0.21240234
-0.21209717
-0.21179199
-0.21179199
-0.21179199
-0.21179199
-0.21179199
-0.21179199
-0.21179199
-0.21148682
-0.21118164
-0.21087646
-0.21057129
-0.21026611
-0.21026611
-0.20996094
-0.20965576
-0.20935059
-0.20874023
-0.20812988
-0.20690918
-0.20568848
-0.2041626
-0.20263672
-0.20141602
-0.20019531
-0.19927979
-0.19836426
-0.19775391
-0.19714355
-0.19683838
-0.1965332
-0.19622803
-0.19622803
-0.19622803
-0.1965332
-0.19714355
-0.19775391
-0.19866943
-0.19897461
-0.19958496
-0.19958496
-0.19958496
-0.19927979
-0.19866943
-0.19836426
-0.19775391
-0.19744873
-0.19714355
-0.1965332
-0.19561768
-0.19470215
-0.19378662
-0.19317627
-0.19256592
-0.19226074
-0.19226074
-0.19256592
-0.19317627
-0.1940918
-0.19500732
-0.19561768
-0.19592285
-0.19622803
-0.1965332
-0.1965332
-0.1965332
-0.1965332
-0.1965332
-0.19622803
-0.19561768
-0.19500732
-0.1940918
-0.19317627
-0.19226074
-0.19104004
-0.18981934
-0.18829346
-0.18707275
-0.18554688
-0.184021
-0.18280029
-0.18127441
-0.18005371
-0.17883301
-0.17791748
-0.17669678
-0.17608643
-0.17547607
-0.17486572
-0.17486572
-0.17547607
-0.17608643
-0.17730713
-0.17822266
-0.17944336
-0.18066406
-0.18157959
-0.18249512
-0.18341064
-0.18432617
-0.1852417
-0.1864624
-0.18707275
-0.18768311
-0.18798828
-0.18798828
-0.18768311
-0.18768311
-0.18737793
-0.18676758
-0.1864624
-0.18615723
-0.18585205
-0.18554688
-0.1852417
-0.18493652
-0.18463135
-0.18432617
-0.184021
-0.18371582
-0.18310547
-0.18249512
-0.18188477
-0.18127441
-0.18035889
-0.17974854
-0.17913818
-0.17852783
-0.17822266
-0.1776123
-0.17700195
-0.17669678
-0.1763916
-0.17608643
-0.17578125
-0.17578125
-0.17547607
-0.1751709
-0.17486572
-0.17425537
-0.1739502
-0.17364502
-0.17333984
-0.17333984
-0.17333984
-0.17364502
-0.1739502
-0.17456055
-0.1751709
-0.17608643
-0.17700195
-0.17822266
-0.17944336
-0.18035889
-0.18127441
-0.18218994
-0.18280029
-0.18310547
-0.18310547
-0.18310547
-0.18249512
-0.18157959
-0.18035889
-0.17913818
-0.17791748
-0.17669678
-0.17547607
-0.17425537
-0.17333984
-0.17272949
-0.17242432
-0.17242432
-0.17272949
-0.17364502
-0.17456055
-0.17578125
-0.17700195
-0.17791748
-0.17883301
-0.17944336
-0.18005371
-0.18035889
-0.18096924
-0.18127441
-0.18157959
-0.18188477
-0.18188477
-0.18157959
-0.18127441
-0.18096924
-0.18035889
-0.18005371
-0.18005371
-0.18005371
-0.18035889
-0.18066406
-0.18096924
-0.18127441
-0.18157959
-0.18188477
-0.18188477
-0.18157959
-0.18096924
-0.18035889
-0.17974854
-0.17944336
-0.17913818
-0.17883301
-0.17852783
-0.17852783
-0.17822266
-0.17791748
-0.1776123
-0.1776123
-0.1776123
-0.17791748
-0.17822266
-0.17883301
-0.17913818
-0.17944336
-0.17913818
-0.17883301
-0.17852783
-0.17791748
-0.17700195
-0.1763916
-0.17578125
-0.1751709
-0.17456055
-0.1739502
-0.17333984
-0.17303467
-0.17303467
-0.17333984
-0.1739502
-0.17456055
-0.1751709
-0.17608643
-0.17669678
-0.1776123
-0.17822266
-0.17883301
-0.17913818
-0.17974854
-0.18005371
-0.18005371
-0.18035889
-0.18035889
-0.18035889
-0.18035889
-0.18005371
-0.17913818
-0.17822266
-0.17730713
-0.1763916
-0.17578125
-0.17547607
-0.1751709
-0.17486572
-0.17456055
-0.17425537
-0.1739502
-0.17333984
-0.17272949
-0.17242432
-0.17211914
-0.17211914
-0.17211914
-0.17211914
-0.17242432
-0.17303467
-0.17364502
-0.17425537
-0.17547607
-0.17700195
-0.17822266
-0.17944336
-0.18035889
-0.18066406
-0.18096924
-0.18096924
-0.18096924
-0.18066406
-0.18035889
-0.17974854
-0.17944336
-0.17883301
-0.17791748
-0.17669678
-0.17547607
-0.1739502
-0.17303467
-0.17211914
-0.17150879
-0.17120361
-0.17150879
-0.17211914
-0.17303467
-0.17425537
-0.1751709
-0.1763916
-0.17791748
-0.17913818
-0.18035889
-0.18157959
-0.18280029
-0.18371582
-0.18463135
-0.18493652
-0.18493652
-0.18463135
-0.184021
-0.18310547
-0.18218994
-0.18127441
-0.18035889
-0.17913818
-0.17791748
-0.17669678
-0.1751709
-0.17364502
-0.17242432
-0.17150879
-0.17059326
-0.16998291
-0.16967773
-0.16906738
-0.16845703
-0.16815186
-0.16784668
-0.1675415
-0.1675415
-0.16723633
-0.16693115
-0.16662598
-0.16662598
-0.16662598
-0.1663208
-0.1663208
-0.1663208
-0.16662598
-0.16693115
-0.1675415
-0.16784668
-0.16845703
-0.16906738
-0.16998291
-0.17059326
-0.17150879
-0.17242432
-0.17303467
-0.17333984
-0.17364502
-0.17364502
-0.17333984
-0.17303467
-0.17242432
-0.17181396
-0.17120361
-0.17028809
-0.16937256
-0.16815186
-0.16723633
-0.1663208
-0.16540527
-0.16448975
-0.16357422
-0.16296387
-0.16265869
-0.16235352
-0.16204834
-0.16235352
-0.16235352
-0.16265869
-0.16265869
-0.16265869
-0.16296387
-0.16357422
-0.16387939
-0.16418457
-0.16479492
-0.1651001
-0.1651001
-0.16540527
-0.16540527
-0.16571045
-0.16571045
-0.16571045
-0.16571045
-0.16540527
-0.16479492
-0.16418457
-0.16357422
-0.16326904
-0.16326904
-0.16326904
-0.16357422
-0.16357422
-0.16326904
-0.16296387
-0.16265869
-0.16235352
-0.16204834
-0.16174316
-0.16113281
-0.16082764
-0.16021729
-0.15991211
-0.15930176
-0.15899658
-0.15838623
-0.15777588
-0.15686035
-0.15625
-0.15533447
-0.15472412
-0.15411377
-0.15350342
-0.15350342
-0.15350342
-0.15380859
-0.15472412
-0.15594482
-0.15716553
-0.15869141
-0.16021729
-0.16174316
-0.16296387
-0.16448975
-0.16540527
-0.1663208
-0.16693115
-0.16723633
-0.1675415
-0.16784668
-0.1675415
-0.16693115
-0.16601562
-0.16479492
-0.16326904
-0.16143799
-0.15960693
-0.15777588
-0.15594482
-0.15411377
-0.15258789
-0.15136719
-0.15045166
-0.14953613
-0.14892578
-0.14831543
-0.14801025
-0.14770508
-0.14770508
-0.1473999
-0.14770508
-0.14770508
-0.14801025
-0.14831543
-0.14862061
-0.14892578
-0.14923096
-0.14953613
-0.14984131
-0.15014648
-0.15075684
-0.15106201
-0.15167236
-0.15228271
-0.15289307
-0.15380859
-0.15441895
-0.1550293
-0.15563965
-0.15625
-0.15686035
-0.15716553
-0.15716553
-0.15716553
-0.15686035
-0.15655518
-0.15563965
-0.15441895
-0.15289307
-0.15106201
-0.14923096
-0.14709473
-0.1449585
-0.14282227
-0.14038086
-0.13793945
-0.13549805
-0.13336182
-0.13092041
-0.128479
-0.1260376
-0.12359619
-0.12115479
-0.11871338
-0.11627197
-0.11413574
-0.11169434
-0.10925293
-0.10650635
-0.10375977
-0.10101318
-0.098571777
-0.096435547
-0.094299316
-0.092468262
-0.090942383
-0.089111328
-0.087585449
-0.085754395
-0.08392334
-0.082397461
-0.080871582
-0.079650879
-0.078430176
-0.077514648
-0.076599121
-0.075378418
-0.073547363
-0.071716309
-0.069885254
-0.067443848
-0.065002441
-0.062866211
-0.060424805
-0.05859375
-0.056762695
-0.055236816
-0.054321289
-0.053405762
-0.053100586
-0.053405762
-0.054016113
-0.055236816
-0.056762695
-0.059204102
-0.061950684
-0.065612793
-0.069885254
-0.074768066
-0.079956055
-0.085449219
-0.090942383
-0.096130371
-0.10131836
-0.10620117
-0.11077881
-0.11535645
-0.11962891
-0.12390137
-0.12786865
-0.13092041
-0.13366699
-0.13580322
-0.13763428
-0.13916016
-0.14007568
-0.14099121
-0.14160156
-0.14221191
-0.14251709
-0.14282227
-0.14312744
-0.14373779
-0.14465332
-0.14587402
-0.1473999
-0.14892578
-0.15106201
-0.15319824
-0.15563965
-0.15808105
-0.16021729
-0.16265869
-0.16479492
-0.16662598
-0.16876221
-0.17059326
-0.17242432
-0.1739502
-0.1751709
-0.17578125
-0.17608643
-0.17608643
-0.17547607
-0.17486572
-0.1739502
-0.17303467
-0.17211914
-0.17150879
-0.17089844
-0.17059326
-0.17059326
-0.17059326
-0.17089844
-0.17120361
-0.17150879
-0.17181396
-0.17242432
-0.17272949
-0.17303467
-0.17333984
-0.17333984
-0.17333984
-0.17303467
-0.17272949
-0.17211914
-0.17150879
-0.17089844
-0.17028809
-0.16967773
-0.16937256
-0.16937256
-0.16967773
-0.16998291
-0.17028809
-0.17089844
-0.17150879
-0.17242432
-0.17303467
-0.1739502
-0.17456055
-0.1751709
-0.17547607
-0.17547607
-0.17486572
-0.17425537
-0.17303467
-0.17181396
-0.17028809
-0.16876221
-0.1675415
-0.16601562
-0.1651001
-0.16418457
-0.16357422
-0.16296387
-0.16265869
-0.16235352
-0.16265869
-0.16296387
-0.16357422
-0.16448975
-0.1651001
-0.16601562
-0.16693115
-0.1675415
-0.16784668
-0.1675415
-0.16693115
-0.1663208
-0.16540527
-0.16418457
-0.16326904
-0.16265869
-0.16174316
-0.16113281
-0.16021729
-0.15960693
-0.15930176
-0.15899658
-0.15869141
-0.15899658
-0.15960693
-0.15991211
-0.16052246
-0.16113281
-0.16143799
-0.16204834
-0.16265869
-0.16357422
-0.16479492
-0.16601562
-0.1675415
-0.16906738
-0.17059326
-0.17211914
-0.1739502
-0.17578125
-0.17791748
-0.17974854
-0.18127441
-0.18249512
-0.18310547
-0.18341064
-0.18280029
-0.18157959
-0.17974854
-0.17700195
-0.1739502
-0.17028809
-0.16601562
-0.16082764
-0.1550293
-0.14801025
-0.13977051
-0.13061523
-0.12023926
-0.10864258
-0.095214844
-0.079650879
-0.061035156
-0.039367676
-0.014343262
0.014648438
0.047912598
0.084533691
0.12390137
0.16540527
0.20782471
0.25054932
0.2923584
0.33325195
0.3717041
0.40618896
0.43609619
0.45928955
0.47485352
0.48156738
0.47912598
0.46661377
0.44433594
0.41320801
0.37353516
0.32592773
0.27191162
0.21240234
0.14923096
0.083312988
0.016479492
-0.049743652
-0.11413574
-0.1751709
-0.23162842
-0.28259277
-0.32684326
-0.36407471
-0.39337158
-0.41473389
-0.4284668
-0.43457031
-0.43395996
-0.42755127
-0.41564941
-0.39916992
-0.3793335
-0.35705566
-0.33294678
-0.30822754
-0.28320312
-0.25909424
-0.23620605
-0.21514893
-0.1965332
-0.18005371
-0.1663208
-0.1550293
-0.14648438
-0.13977051
-0.13519287
-0.13244629
-0.13122559
-0.13122559
-0.13183594
-0.13305664
-0.13427734
-0.13580322
-0.1373291
-0.1385498
-0.13977051
-0.14068604
-0.14160156
-0.14251709
-0.14312744
-0.14434814
-0.14526367
-0.14648438
-0.1473999
-0.14831543
-0.14892578
-0.14953613
-0.15014648
-0.15075684
-0.15136719
-0.15197754
-0.15228271
-0.15197754
-0.15167236
-0.15106201
-0.15045166
-0.14953613
-0.14892578
-0.14831543
-0.14801025
-0.14770508
-0.14770508
-0.14770508
-0.1473999
-0.14709473
-0.14648438
-0.1461792
-0.14556885
-0.1449585
-0.14465332
-0.14373779
-0.14312744
-0.14190674
-0.14068604
-0.13916016
-0.13763428
-0.1361084
-0.13427734
-0.13275146
-0.13153076
-0.13031006
-0.12908936
-0.12817383
-0.12786865
-0.1272583
-0.1272583
-0.1272583
-0.12756348
-0.12756348
-0.12817383
-0.128479
-0.12878418
-0.12908936
-0.12939453
-0.12939453
-0.12908936
-0.12878418
-0.128479
-0.12786865
-0.12756348
-0.12695312
-0.12695312
-0.12664795
-0.12664795
-0.12695312
-0.12664795
-0.1260376
-0.12512207
-0.12420654
-0.12298584
-0.12207031
-0.12084961
-0.11962891
-0.11810303
-0.11657715
-0.11505127
-0.11352539
-0.11169434
-0.10986328
-0.10803223
-0.10620117
-0.10467529
-0.10345459
-0.10253906
-0.10223389
-0.10223389
-0.10223389
-0.10253906
-0.10284424
-0.10314941
-0.10345459
-0.10345459
-0.10345459
-0.10345459
-0.10314941
-0.10314941
-0.10253906
-0.10192871
-0.10101318
-0.10009766
-0.098876953
-0.09765625
-0.096130371
-0.094604492
-0.093078613
-0.091552734
-0.090026855
-0.088195801
-0.086669922
-0.084838867
-0.083007812
-0.081176758
-0.079345703
-0.077514648
-0.075683594
-0.074157715
-0.072631836
-0.071105957
-0.069580078
-0.067749023
-0.066223145
-0.064697266
-0.062866211
-0.061340332
-0.059509277
-0.057983398
-0.056152344
-0.054626465
-0.05279541
-0.050964355
-0.049133301
-0.04699707
-0.044555664
-0.042114258
-0.039672852
-0.03692627
-0.034179688
-0.031433105
-0.028991699
-0.026245117
-0.023498535
-0.020751953
-0.01739502
-0.014343262
-0.010986328
-0.0073242188
-0.0039672852
-0.00030517578
0.0033569336
0.007019043
0.010681152
0.014648438
0.018920898
0.023193359
0.02746582
0.031738281
0.036010742
0.040283203
0.044250488
0.047912598
0.051269531
0.054321289
0.057373047
0.06072998
0.064086914
0.067138672
0.07019043
0.073242188
0.07598877
0.078735352
0.081176758
0.08392334
0.086975098
0.090026855
0.093078613
0.096130371
0.099182129
0.10253906
0.10620117
0.10986328
0.11352539
0.11688232
0.12054443
0.12390137
0.12756348
0.13153076
0.13519287
0.13916016
0.14282227
0.14648438
0.15014648
0.15319824
0.15594482
0.15869141
0.16082764
0.16265869
0.16448975
0.16571045
0.1663208
0.16662598
0.16662598
0.1663208
0.16540527
0.16418457
0.16296387
0.16113281
0.15930176
0.15686035
0.15441895
0.15136719
0.14831543
0.14465332
0.14099121
0.1373291
0.13336182
0.12908936
0.12451172
0.12023926
0.11535645
0.11047363
0.10498047
0.098876953
0.092163086
0.084838867
0.077209473
0.069580078
0.061645508
0.053710938
0.045471191
0.037231445
0.028686523
0.020141602
0.01159668
0.002746582
-0.0057983398
-0.014648438
-0.023498535
-0.032043457
-0.040588379
-0.048828125
-0.057067871
-0.065002441
-0.072937012
-0.080566406
-0.088195801
-0.095825195
-0.10375977
-0.11108398
-0.11810303
-0.12481689
-0.13122559
-0.13763428
-0.14373779
-0.14953613
-0.15533447
-0.16052246
-0.1651001
-0.16967773
-0.1739502
-0.1776123
-0.18127441
-0.18432617
-0.18737793
-0.19012451
-0.19287109
-0.1953125
-0.19775391
-0.20019531
-0.20233154
-0.20446777
-0.206604
-0.20843506
-0.21026611
-0.21209717
-0.21362305
-0.2154541
-0.21697998
-0.21850586
-0.22003174
-0.22155762
-0.22277832
-0.2243042
-0.2255249
-0.22674561
-0.22827148
-0.23010254
-0.23193359
-0.23345947
-0.23468018
-0.2355957
-0.23651123
-0.23681641
-0.23742676
-0.23742676
-0.23773193
-0.23742676
-0.23681641
-0.23620605
-0.23529053
-0.23376465
-0.23254395
-0.23071289
-0.22918701
-0.22796631
-0.22674561
-0.22583008
-0.22521973
-0.2243042
-0.22369385
-0.22277832
-0.22247314
-0.22186279
-0.22155762
-0.22125244
-0.22125244
-0.22094727
-0.22064209
-0.22003174
-0.21972656
-0.21911621
-0.21881104
-0.21820068
-0.21789551
-0.21759033
-0.21759033
-0.21728516
-0.21728516
-0.21697998
-0.21697998
-0.21697998
-0.21728516
-0.21789551
-0.21850586
-0.21881104
-0.21881104
-0.21911621
-0.21942139
-0.21972656
-0.22003174
-0.22003174
-0.22003174
-0.21972656
-0.21972656
-0.21942139
-0.21911621
-0.21850586
-0.21820068
-0.21759033
-0.21728516
-0.2166748
-0.21636963
-0.21606445
-0.2154541
-0.21514893
-0.21453857
-0.21392822
-0.21331787
-0.21270752
-0.21240234
-0.21179199
-0.21179199
-0.21148682
-0.21148682
-0.21148682
-0.21118164
-0.21087646
-0.21057129
-0.21026611
-0.20996094
-0.20996094
-0.20965576
-0.20965576
-0.20965576
-0.20965576
-0.20965576
-0.20965576
-0.20996094
-0.21057129
-0.21118164
-0.21209717
-0.21270752
-0.21362305
-0.21392822
-0.2142334
-0.2142334
-0.2142334
-0.2142334
-0.21392822
-0.21331787
-0.21240234
-0.21118164
-0.20965576
-0.20812988
-0.20629883
-0.20477295
-0.20294189
-0.20111084
-0.19958496
-0.19805908
-0.1965332
-0.1953125
-0.19439697
-0.19378662
-0.19317627
-0.19317627
-0.19317627
-0.19317627
-0.19378662
-0.19439697
-0.19500732
-0.1953125
-0.19561768
-0.1953125
-0.1953125
-0.1953125
-0.19561768
-0.19592285
-0.19622803
-0.1965332
-0.19683838
-0.1965332
-0.19622803
-0.1953125
-0.19470215
-0.19378662
-0.19317627
-0.19256592
-0.19195557
-0.19134521
-0.19104004
-0.19042969
-0.19012451
-0.18981934
-0.18951416
-0.18951416
-0.18981934
-0.19012451
-0.19042969
-0.19042969
-0.19073486
-0.19104004
-0.19165039
-0.19195557
-0.19226074
-0.19226074
-0.19195557
-0.19165039
-0.19134521
-0.19073486
-0.19012451
-0.18951416
-0.18890381
-0.18859863
-0.18829346
-0.18829346
-0.18829346
-0.18829346
-0.18859863
-0.18859863
-0.18890381
-0.18920898
-0.18920898
-0.18920898
-0.18920898
-0.18920898
-0.18890381
-0.18829346
-0.18768311
-0.18707275
-0.1864624
-0.18585205
-0.1852417
-0.18432617
-0.18371582
-0.18341064
-0.18280029
-0.18249512
-0.18249512
-0.18280029
-0.18310547
-0.18371582
-0.18432617
-0.1852417
-0.18615723
-0.18707275
-0.18768311
-0.18829346
-0.18890381
-0.18951416
-0.18981934
-0.19042969
-0.19073486
-0.19134521
-0.19165039
-0.19195557
-0.19256592
-0.19317627
-0.19348145
-0.19439697
-0.19561768
-0.19714355
-0.19866943
-0.19989014
-0.20080566
-0.20141602
-0.20141602
-0.20111084
-0.20080566
-0.20019531
-0.19958496
-0.19866943
-0.19744873
-0.1965332
-0.1953125
-0.1940918
-0.19287109
-0.19195557
-0.19104004
-0.19073486
-0.19073486
-0.19134521
-0.19226074
-0.19317627
-0.19439697
-0.19592285
-0.19744873
-0.19897461
-0.20050049
-0.20233154
-0.20355225
-0.20446777
-0.2053833
-0.20568848
-0.20568848
-0.2053833
-0.20446777
-0.20355225
-0.20263672
-0.20172119
-0.20080566
-0.19958496
-0.19866943
-0.19775391
-0.19683838
-0.19592285
-0.1953125
-0.19439697
-0.19378662
-0.19287109
-0.19226074
-0.19134521
-0.19073486
-0.19012451
-0.18951416
-0.18890381
-0.18829346
-0.18798828
-0.18798828
-0.18829346
-0.18859863
-0.18920898
-0.18981934
-0.19073486
-0.19165039
-0.19256592
-0.19317627
-0.1940918
-0.19470215
-0.19561768
-0.19622803
-0.1965332
-0.1965332
-0.1965332
-0.1965332
-0.19622803
-0.19622803
-0.19622803
-0.19622803
-0.19622803
-0.1965332
-0.1965332
-0.19622803
-0.19622803
-0.19592285
-0.19561768
-0.19561768
-0.1953125
-0.1953125
-0.1953125
-0.19561768
-0.1953125
-0.1953125
-0.19470215
-0.1940918
-0.19378662
-0.19348145
-0.19348145
-0.19348145
-0.19378662
-0.1940918
-0.19439697
-0.1940918
-0.1940918
-0.19348145
-0.19317627
-0.19287109
-0.19256592
-0.19226074
-0.19165039
-0.19104004
-0.19012451
-0.18920898
-0.18798828
-0.18707275
-0.18585205
-0.1852417
-0.18493652
-0.18493652
-0.18493652
-0.1852417
-0.1852417
-0.18554688
-0.18615723
-0.1864624
-0.18676758
-0.18707275
-0.18707275
-0.18676758
-0.1864624
-0.18615723
-0.18585205
-0.18554688
-0.1852417
-0.18463135
-0.18432617
-0.184021
-0.18371582
-0.18341064
-0.18341064
-0.18371582
-0.184021
-0.18432617
-0.1852417
-0.18615723
-0.18707275
-0.18798828
-0.18920898
-0.19012451
-0.19104004
-0.19195557
-0.19256592
-0.19317627
-0.19378662
-0.1940918
-0.19439697
-0.19439697
-0.19439697
-0.19470215
-0.19500732
-0.1953125
-0.1953125
-0.1953125
-0.19500732
-0.19470215
-0.19439697
-0.19439697
-0.19439697
-0.19439697
-0.19439697
-0.19439697
-0.19439697
-0.19439697
-0.19439697
-0.19439697
-0.1940918
-0.19378662
-0.19317627
-0.19256592
-0.19195557
-0.19134521
-0.19073486
-0.19012451
-0.18981934
-0.18981934
-0.18951416
-0.18920898
-0.18890381
-0.18890381
-0.18859863
-0.18859863
-0.18890381
-0.18951416
-0.19042969
-0.19104004
-0.19195557
-0.19287109
-0.19378662
-0.19470215
-0.19592285
-0.19683838
-0.19775391
-0.19866943
-0.19927979
-0.19958496
-0.19989014
-0.19989014
-0.19989014
-0.19958496
-0.19958496
-0.19897461
-0.19866943
-0.19775391
-0.19714355
-0.1965332
-0.19592285
-0.19561768
-0.19500732
-0.19500732
-0.19470215
-0.19439697
-0.1940918
-0.19378662
-0.19378662
-0.19348145
-0.19348145
-0.19378662
-0.1940918
-0.19470215
-0.1953125
-0.19622803
-0.19683838
-0.19775391
-0.19836426
-0.19927979
-0.20019531
-0.20111084
-0.20172119
-0.20233154
-0.20263672
-0.20294189
-0.20294189
-0.20263672
-0.20233154
-0.20172119
-0.20111084
-0.19989014
-0.19866943
-0.19744873
-0.19592285
-0.19439697
-0.19287109
-0.19195557
-0.19104004
-0.19042969
-0.19012451
-0.19042969
-0.19073486
-0.19165039
-0.19256592
-0.19378662
-0.19500732
-0.19622803
-0.19775391
-0.19897461
-0.20019531
-0.20141602
-0.20233154
-0.20324707
-0.20355225
-0.20385742
-0.20385742
-0.20385742
-0.20385742
-0.20385742
-0.20385742
-0.2041626
-0.2041626
-0.20385742
-0.20355225
-0.20324707
-0.20263672
-0.20202637
-0.20172119
-0.20141602
-0.20111084
-0.20080566
-0.20050049
-0.20019531
-0.19989014
-0.19958496
-0.19897461
-0.19805908
-0.19744873
-0.1965332
-0.19561768
-0.19500732
-0.19470215
-0.19439697
-0.19439697
-0.19470215
-0.19500732
-0.19561768
-0.1965332
-0.19714355
-0.19775391
-0.19836426
-0.19897461
-0.19989014
-0.20050049
-0.20111084
-0.20172119
-0.20233154
-0.20263672
-0.20294189
-0.20355225
-0.20385742
-0.20385742
-0.20355225
-0.20294189
-0.20202637
-0.20141602
-0.20050049
-0.19958496
-0.19866943
-0.19805908
-0.19744873
-0.19714355
-0.19683838
-0.1965332
-0.19622803
-0.19592285
-0.19592285
-0.19622803
-0.1965332
-0.19683838
-0.19744873
-0.19775391
-0.19805908
-0.19836426
-0.19836426
-0.19836426
-0.19805908
-0.19744873
-0.1965332
-0.1953125
-0.1940918
-0.19256592
-0.19073486
-0.18890381
-0.18676758
-0.18432617
-0.18157959
-0.17883301
-0.17578125
-0.17303467
-0.16998291
-0.16693115
-0.16387939
-0.16052246
-0.15686035
-0.15319824
-0.14953613
-0.14587402
-0.14251709
-0.13916016
-0.13580322
-0.13244629
-0.12939453
-0.12634277
-0.12359619
-0.12115479
-0.11901855
-0.1171875
-0.11535645
-0.11322021
-0.11138916
-0.10955811
-0.10742188
-0.10559082
-0.10375977
-0.10162354
-0.10009766
-0.098571777
-0.097045898
-0.095825195
-0.094299316
-0.092773438
-0.091247559
-0.090026855
-0.089111328
-0.088806152
-0.088806152
-0.089416504
-0.090637207
-0.09185791
-0.093994141
-0.096130371
-0.098876953
-0.10162354
-0.10467529
-0.10803223
-0.11169434
-0.11535645
-0.11962891
-0.12359619
-0.12786865
-0.13244629
-0.13671875
-0.14099121
-0.14556885
-0.14984131
-0.15411377
-0.15838623
-0.16235352
-0.16601562
-0.16967773
-0.17272949
-0.17578125
-0.17852783
-0.18127441
-0.18371582
-0.18615723
-0.18829346
-0.19012451
-0.19226074
-0.19439697
-0.1965332
-0.19836426
-0.20050049
-0.20263672
-0.20446777
-0.206604
-0.20904541
-0.21118164
-0.21362305
-0.21606445
-0.21820068
-0.22003174
-0.22186279
-0.22369385
-0.22521973
-0.22644043
-0.22766113
-0.22857666
-0.22918701
-0.22949219
-0.22979736
-0.22979736
-0.22949219
-0.22918701
-0.22888184
-0.22857666
-0.22857666
-0.22827148
-0.22827148
-0.22827148
-0.22827148
-0.22796631
-0.22827148
-0.22827148
-0.22888184
-0.22918701
-0.22949219
-0.22949219
-0.22949219
-0.22949219
-0.22949219
-0.22979736
-0.22979736
-0.23010254
-0.23010254
-0.23040771
-0.23040771
-0.23040771
-0.23040771
-0.23040771
-0.23040771
-0.23010254
-0.23010254
-0.22979736
-0.22979736
-0.22949219
-0.22949219
-0.22949219
-0.22949219
-0.22918701
-0.22888184
-0.22857666
-0.22827148
-0.22796631
-0.22766113
-0.22766113
-0.22796631
-0.22827148
-0.22888184
-0.22918701
-0.22949219
-0.22979736
-0.23040771
-0.23071289
-0.23132324
-0.23162842
-0.23162842
-0.23162842
-0.23132324
-0.23101807
-0.23071289
-0.23040771
-0.22979736
-0.22918701
-0.22857666
-0.22766113
-0.22674561
-0.22583008
-0.22460938
-0.22369385
-0.22277832
-0.22186279
-0.22155762
-0.22125244
-0.22125244
-0.22125244
-0.22155762
-0.22216797
-0.22338867
-0.22491455
-0.22705078
-0.22949219
-0.23193359
-0.23468018
-0.23773193
-0.24078369
-0.24414062
-0.24749756
-0.25054932
-0.2532959
-0.2557373
-0.25726318
-0.25817871
-0.25817871
-0.25756836
-0.2557373
-0.25360107
-0.25085449
-0.24749756
-0.24383545
-0.23956299
-0.23468018
-0.22918701
-0.22277832
-0.2154541
-0.20721436
-0.19836426
-0.18798828
-0.17608643
-0.16113281
-0.14312744
-0.12115479
-0.094909668
-0.064697266
-0.030212402
0.0082397461
0.049743652
0.093383789
0.1385498
0.184021
0.22888184
0.27282715
0.31463623
0.35308838
0.38604736
0.41259766
0.4309082
0.44067383
0.44067383
0.43121338
0.4119873
0.38330078
0.34576416
0.29998779
0.24688721
0.18798828
0.12420654
0.057373047
-0.010986328
-0.079040527
-0.14556885
-0.20874023
-0.26794434
-0.32165527
-0.3692627
-0.41015625
-0.44342041
-0.46875
-0.4864502
-0.496521
-0.49926758
-0.49591064
-0.4864502
-0.47210693
-0.45379639
-0.43212891
-0.40863037
-0.38360596
-0.35858154
-0.3338623
-0.31036377
-0.28869629
-0.26885986
-0.25146484
-0.23651123
-0.2243042
-0.21453857
-0.20690918
-0.20172119
-0.19805908
-0.19622803
-0.19561768
-0.19622803
-0.19744873
-0.19897461
-0.20080566
-0.20263672
-0.20446777
-0.20629883
-0.20782471
-0.20904541
-0.21026611
-0.21118164
-0.21240234
-0.21331787
-0.21392822
-0.21484375
-0.21575928
-0.2166748
-0.21728516
-0.21759033
-0.21789551
-0.21759033
-0.21759033
-0.21728516
-0.21728516
-0.21697998
-0.2166748
-0.21606445
-0.2154541
-0.21484375
-0.2142334
-0.21331787
-0.21240234
-0.21148682
-0.21057129
-0.20935059
-0.20874023
-0.20782471
-0.20721436
-0.20690918
-0.206604
-0.20690918
-0.20690918
-0.20690918
-0.20721436
-0.20721436
-0.20721436
-0.20721436
-0.20751953
-0.20782471
-0.20812988
-0.20874023
-0.20904541
-0.20935059
-0.20935059
-0.20935059
-0.20904541
-0.20904541
-0.20874023
-0.20843506
-0.20812988
-0.20812988
-0.20782471
-0.20751953
-0.20721436
-0.20721436
-0.20690918
-0.206604
-0.20629883
-0.20599365
-0.2053833
-0.20477295
-0.2041626
-0.20324707
-0.20263672
-0.20202637
-0.20141602
-0.20080566
-0.20019531
-0.19927979
-0.19805908
-0.19683838
-0.1953125
-0.19439697
-0.19348145
-0.19287109
-0.19195557
-0.19134521
-0.19073486
-0.19012451
-0.18981934
-0.18920898
-0.18859863
-0.18798828
-0.18737793
-0.18676758
-0.18585205
-0.1852417
-0.18432617
-0.18310547
-0.18218994
-0.18066406
-0.17944336
-0.17822266
-0.17700195
-0.17578125
-0.17486572
-0.17364502
-0.17272949
-0.17181396
-0.17120361
-0.17028809
-0.16967773
-0.16876221
-0.16784668
-0.16693115
-0.16571045
-0.16418457
-0.16296387
-0.16143799
-0.15960693
-0.15808105
-0.15625
-0.15441895
-0.15258789
-0.15045166
-0.14831543
-0.1461792
-0.14404297
-0.14160156
-0.13946533
-0.13763428
-0.13580322
-0.13397217
-0.13244629
-0.13092041
-0.12939453
-0.12756348
-0.1260376
-0.12451172
-0.12268066
-0.12115479
-0.11962891
-0.11810303
-0.11688232
-0.11535645
-0.11383057
-0.11169434
-0.10955811
-0.1071167
-0.10406494
-0.10101318
-0.09765625
-0.094299316
-0.090637207
-0.086975098
-0.083312988
-0.079650879
-0.076293945
-0.072937012
-0.069274902
-0.065917969
-0.062255859
-0.05859375
-0.054931641
-0.050964355
-0.047302246
-0.043640137
-0.040283203
-0.036621094
-0.032958984
-0.028991699
-0.025024414
-0.020751953
-0.016784668
-0.012512207
-0.0082397461
-0.0033569336
0.0015258789
0.0067138672
0.01159668
0.016174316
0.020141602
0.024108887
0.02746582
0.030517578
0.033874512
0.037231445
0.040588379
0.044250488
0.047912598
0.051574707
0.055541992
0.059204102
0.062866211
0.066833496
0.070495605
0.074157715
0.077819824
0.081176758
0.084533691
0.087890625
0.090942383
0.093688965
0.096435547
0.099182129
0.10162354
0.10375977
0.105896
0.10742188
0.10864258
0.10986328
0.11047363
0.11077881
0.11077881
0.11077881
0.11077881
0.11016846
0.10955811
0.10803223
0.10650635
0.10467529
0.10253906
0.09979248
0.096740723
0.093383789
0.089416504
0.085144043
0.080566406
0.075378418
0.07019043
0.06439209
0.05859375
0.052185059
0.045166016
0.038146973
0.030517578
0.022888184
0.014953613
0.0067138672
-0.0012207031
-0.0094604492
-0.018005371
-0.026550293
-0.035095215
-0.043640137
-0.052185059
-0.060424805
-0.068969727
-0.077514648
-0.08605957
-0.094604492
-0.10314941
-0.11199951
-0.12054443
-0.12908936
-0.13793945
-0.14678955
-0.15533447
-0.16387939
-0.17181396
-0.17944336
-0.18676758
-0.1940918
-0.20080566
-0.20721436
-0.2130127
-0.21820068
-0.22277832
-0.22705078
-0.23040771
-0.23376465
-0.23681641
-0.23986816
-0.24261475
-0.24505615
-0.24749756
-0.24963379
-0.2520752
-0.25421143
-0.25695801
-0.25970459
-0.26245117
-0.26519775
-0.26763916
-0.27008057
-0.27191162
-0.2734375
-0.27496338
-0.27618408
-0.27740479
-0.27862549
-0.27984619
-0.28076172
-0.28167725
-0.28259277
-0.28320312
-0.28381348
-0.28411865
-0.28442383
-0.28442383
-0.28442383
-0.28442383
-0.284729
-0.284729
-0.284729
-0.28411865
-0.28381348
-0.28320312
-0.28289795
-0.28259277
-0.28259277
-0.28259277
-0.2822876
-0.2822876
-0.28198242
-0.28137207
-0.28137207
-0.28106689
-0.28137207
-0.28167725
-0.28198242
-0.28259277
-0.28289795
-0.28320312
-0.2835083
-0.2835083
-0.2835083
-0.2835083
-0.2835083
-0.2835083
-0.28320312
-0.28289795
-0.28259277
-0.2822876
-0.28198242
-0.28167725
-0.28106689
-0.28045654
-0.27984619
-0.27893066
-0.27832031
-0.27740479
-0.27648926
-0.27587891
-0.27496338
-0.27404785
-0.27313232
-0.2722168
-0.27130127
-0.27038574
-0.26977539
-0.26885986
-0.26824951
-0.26794434
-0.26733398
-0.26702881
-0.26641846
-0.26580811
-0.26550293
-0.26489258
-0.2645874
-0.2645874
-0.26428223
-0.26428223
-0.26397705
-0.26397705
-0.2645874
-0.26519775
-0.26580811
-0.26641846
-0.26702881
-0.26763916
-0.26794434
-0.26855469
-0.26885986
-0.26916504
-0.26916504
-0.26947021
-0.26977539
-0.27008057
-0.27008057
-0.27008057
-0.26947021
-0.26885986
-0.26824951
-0.26763916
-0.26733398
-0.26672363
-0.26641846
-0.26611328
-0.26550293
-0.26519775
-0.26519775
-0.26489258
-0.26489258
-0.2645874
-0.26428223
-0.26397705
-0.26367188
-0.2633667
-0.26306152
-0.26275635
-0.26245117
-0.26245117
-0.262146
-0.262146
-0.26184082
-0.26123047
-0.26092529
-0.26031494
-0.26031494
-0.26000977
-0.26031494
-0.26092529
-0.26123047
-0.26153564
-0.26153564
-0.26153564
-0.26123047
-0.26123047
-0.26092529
-0.26092529
-0.26092529
-0.26092529
-0.26092529
-0.26092529
-0.26062012
-0.26031494
-0.26000977
-0.25970459
-0.25939941
-0.25909424
-0.25848389
-0.25787354
-0.25756836
-0.25726318
-0.25695801
-0.25665283
-0.25634766
-0.25634766
-0.25634766
-0.25604248
-0.25604248
-0.2557373
-0.25543213
-0.25512695
-0.25482178
-0.2545166
-0.25421143
-0.25421143
-0.25421143
-0.25421143
-0.2545166
-0.25482178
-0.25482178
-0.25482178
-0.25482178
-0.25482178
-0.25482178
-0.25512695
-0.25543213
-0.25543213
-0.2557373
-0.25604248
-0.25665283
-0.25726318
-0.25787354
-0.25848389
-0.25909424
-0.25939941
-0.25970459
-0.25970459
-0.25970459
-0.25970459
-0.25970459
-0.25970459
-0.25970459
-0.25970459
-0.25970459
-0.25970459
-0.25970459
-0.25939941
-0.25909424
-0.25848389
-0.25787354
-0.25726318
-0.25695801
-0.25665283
-0.25665283
-0.25726318
-0.25787354
-0.25848389
-0.25970459
-0.26092529
-0.26245117
-0.26397705
-0.26519775
-0.26641846
-0.26763916
-0.26824951
-0.26885986
-0.26947021
-0.27008057
-0.27038574
-0.27038574
-0.26977539
-0.26916504
-0.26794434
-0.26672363
-0.26489258
-0.26306152
-0.26123047
-0.25909424
-0.25726318
-0.25543213
-0.25390625
-0.25238037
-0.25146484
-0.25085449
-0.25054932
-0.25054932
-0.25085449
-0.25146484
-0.25238037
-0.25360107
-0.25512695
-0.25665283
-0.25817871
-0.25939941
-0.26062012
-0.26184082
-0.26275635
-0.26397705
-0.26519775
-0.26611328
-0.26702881
-0.26763916
-0.26824951
-0.26855469
-0.26855469
-0.26855469
-0.26824951
-0.26763916
-0.26733398
-0.26672363
-0.26641846
-0.26580811
-0.26519775
-0.26489258
-0.26428223
-0.26397705
-0.26397705
-0.26397705
-0.26428223
-0.26428223
-0.2645874
-0.26489258
-0.26489258
-0.26550293
-0.26611328
-0.26672363
-0.26794434
-0.26885986
-0.27008057
-0.27130127
-0.27252197
-0.27374268
-0.2746582
-0.27557373
-0.27587891
-0.27618408
-0.27618408
-0.27618408
-0.27587891
-0.27557373
-0.27526855
-0.2746582
-0.27404785
-0.27313232
-0.27191162
-0.27069092
-0.26947021
-0.26794434
-0.26641846
-0.26519775
-0.26428223
-0.2633667
-0.26275635
-0.262146
-0.26184082
-0.26153564
-0.26123047
-0.26092529
-0.26062012
-0.26031494
-0.26031494
-0.26031494
-0.26031494
-0.26031494
-0.26031494
-0.26062012
-0.26062012
-0.26062012
-0.26062012
-0.26092529
-0.26123047
-0.26153564
-0.26184082
-0.262146
-0.26245117
-0.26306152
-0.2633667
-0.26428223
-0.26519775
-0.26641846
-0.26794434
-0.26947021
-0.27099609
-0.2722168
-0.2734375
-0.27404785
-0.27496338
-0.27557373
-0.27587891
-0.27648926
-0.27679443
-0.27679443
-0.27648926
-0.27618408
-0.27587891
-0.27526855
-0.27435303
-0.2734375
-0.27252197
-0.27160645
-0.27069092
-0.26977539
-0.26916504
-0.26885986
-0.26885986
-0.26916504
-0.26947021
-0.27008057
-0.27038574
-0.27099609
-0.27130127
-0.27191162
-0.27252197
-0.2734375
-0.27435303
-0.27496338
-0.27557373
-0.27557373
-0.27557373
-0.27526855
-0.27496338
-0.27435303
-0.27404785
-0.2734375
-0.27282715
-0.27252197
-0.2722168
-0.27191162
-0.27160645
-0.27099609
-0.27069092
-0.27008057
-0.26947021
-0.26885986
-0.26855469
-0.26824951
-0.26824951
-0.26824951
-0.26855469
-0.26855469
-0.26855469
-0.26824951
-0.26855469
-0.26855469
-0.26885986
-0.26947021
-0.26977539
-0.27008057
-0.27038574
-0.27099609
-0.27130127
-0.27160645
-0.27160645
-0.27191162
-0.27191162
-0.27160645
-0.27130127
-0.27130127
-0.27099609
-0.27069092
-0.27038574
-0.27008057
-0.26977539
-0.26947021
-0.26885986
-0.26855469
-0.26794434
-0.26763916
-0.26702881
-0.26672363
-0.26672363
-0.26641846
-0.26641846
-0.26641846
-0.26611328
-0.26580811
-0.26580811
-0.26550293
-0.26519775
-0.26519775
-0.26519775
-0.26519775
-0.26519775
-0.26489258
-0.26489258
-0.2645874
-0.26397705
-0.2633667
-0.26275635
-0.26184082
-0.26123047
-0.26062012
-0.26000977
-0.25939941
-0.25878906
-0.25787354
-0.25726318
-0.25665283
-0.25634766
-0.25634766
-0.25634766
-0.25665283
-0.25695801
-0.25756836
-0.25817871
-0.25939941
-0.26062012
-0.26184082
-0.2633667
-0.26519775
-0.26672363
-0.26794434
-0.26885986
-0.26947021
-0.26947021
-0.26947021
-0.26947021
-0.26947021
-0.26977539
-0.26977539
-0.26947021
-0.26885986
-0.26763916
-0.26611328
-0.26428223
-0.26245117
-0.26062012
-0.25878906
-0.25756836
-0.25634766
-0.25512695
-0.25421143
-0.2532959
-0.25238037
-0.25146484
-0.25085449
-0.25024414
-0.24993896
-0.24993896
-0.25024414
-0.25024414
-0.25024414
-0.25054932
-0.25054932
-0.25085449
-0.25085449
-0.25115967
-0.25146484
-0.25177002
-0.25238037
-0.25268555
-0.2532959
-0.25421143
-0.25482178
-0.25543213
-0.2557373
-0.25634766
-0.25665283
-0.25726318
-0.25756836
-0.25787354
-0.25848389
-0.25848389
-0.25878906
-0.25878906
-0.25878906
-0.25848389
-0.25817871
-0.25756836
-0.25665283
-0.25543213
-0.25421143
-0.2532959
-0.2520752
-0.25115967
-0.25024414
-0.24932861
-0.24871826
-0.24810791
-0.24780273
-0.24749756
-0.24780273
-0.24780273
-0.24810791
-0.24841309
-0.24871826
-0.24902344
-0.24932861
-0.24963379
-0.24993896
-0.24963379
-0.24932861
-0.24841309
-0.24719238
-0.24536133
-0.24291992
-0.24017334
-0.23712158
-0.23345947
-0.22949219
-0.22521973
-0.22094727
-0.21636963
-0.21179199
-0.20721436
-0.20263672
-0.19836426
-0.1940918
-0.19012451
-0.1864624
-0.18310547
-0.18005371
-0.1776123
-0.17547607
-0.17364502
-0.17181396
-0.17059326
-0.16937256
-0.16845703
-0.16784668
-0.16723633
-0.16693115
-0.1663208
-0.16571045
-0.16448975
-0.16326904
-0.16204834
-0.16052246
-0.15930176
-0.15808105
-0.15686035
-0.15533447
-0.15319824
-0.15075684
-0.14862061
-0.14648438
-0.14434814
-0.14251709
-0.14099121
-0.13977051
-0.13885498
-0.13824463
-0.13793945
-0.13793945
-0.1385498
-0.13977051
-0.14129639
-0.14282227
-0.1449585
-0.14770508
-0.15045166
-0.15380859
-0.15777588
-0.16204834
-0.1663208
-0.17089844
-0.1751709
-0.17944336
-0.18371582
-0.18798828
-0.19226074
-0.19683838
-0.20111084
-0.2053833
-0.20965576
-0.21392822
-0.21789551
-0.22186279
-0.2255249
-0.22857666
-0.23132324
-0.23376465
-0.23620605
-0.23834229
-0.24047852
-0.24230957
-0.24383545
-0.24475098
-0.2456665
-0.24627686
-0.24658203
-0.24688721
-0.24719238
-0.24719238
-0.24719238
-0.24719238
-0.24719238
-0.24749756
-0.24780273
-0.24841309
-0.24902344
-0.24993896
-0.25085449
-0.25146484
-0.25238037
-0.25299072
-0.2532959
-0.25390625
-0.25421143
-0.2545166
-0.25482178
-0.25482178
-0.25512695
-0.25512695
-0.25482178
-0.2545166
-0.25390625
-0.2532959
-0.25268555
-0.2520752
-0.25115967
-0.25054932
-0.24963379
-0.24902344
-0.24841309
-0.24780273
-0.24688721
-0.24597168
-0.24505615
-0.24414062
-0.24353027
-0.24291992
-0.24261475
-0.24230957
-0.24200439
-0.24169922
-0.24169922
-0.24139404
-0.24108887
-0.24108887
-0.24078369
-0.24047852
-0.24017334
-0.23986816
-0.23925781
-0.23895264
-0.23834229
-0.23803711
-0.23742676
-0.23712158
-0.23651123
-0.23590088
-0.23529053
-0.23498535
-0.23468018
-0.234375
-0.23468018
-0.23498535
-0.23529053
-0.23590088
-0.23620605
-0.23651123
-0.23681641
-0.23712158
-0.23742676
-0.23742676
-0.23742676
-0.23681641
-0.23590088
-0.23498535
-0.23376465
-0.23254395
-0.23101807
-0.22979736
-0.22827148
-0.22674561
-0.2255249
-0.2243042
-0.22369385
-0.22338867
-0.22338867
-0.22399902
-0.22491455
-0.22644043
-0.22827148
-0.23071289
-0.23345947
-0.23681641
-0.24017334
-0.24353027
-0.24688721
-0.24963379
-0.2520752
-0.25360107
-0.2545166
-0.25482178
-0.2545166
-0.2532959
-0.25146484
-0.24871826
-0.24536133
-0.24078369
-0.23529053
-0.22827148
-0.22003174
-0.21026611
-0.19927979
-0.18707275
-0.17272949
-0.15655518
-0.1373291
-0.11444092
-0.088195801
-0.057678223
-0.023193359
0.015258789
0.056762695
0.10040283
0.14526367
0.19042969
0.2355957
0.27954102
0.32165527
0.36071777
0.39489746
0.42358398
0.44494629
0.45806885
0.46203613
0.45623779
0.440979
0.41564941
0.38116455
0.33813477
0.28747559
0.23040771
0.16876221
0.10345459
0.036010742
-0.031738281
-0.098571777
-0.16296387
-0.22369385
-0.27954102
-0.32928467
-0.37231445
-0.40740967
-0.43487549
-0.45410156
-0.46600342
-0.47027588
-0.46813965
-0.4598999
-0.44616699
-0.42816162
-0.40679932
-0.38269043
-0.35705566
-0.33081055
-0.30456543
-0.27954102
-0.25604248
-0.234375
-0.2154541
-0.19927979
-0.18585205
-0.1751709
-0.16723633
-0.16143799
-0.15777588
-0.15594482
-0.15533447
-0.15625
-0.15777588
-0.15991211
-0.16265869
-0.16540527
-0.16815186
-0.17028809
-0.17211914
-0.17364502
-0.17486572
-0.17547607
-0.17608643
-0.17608643
-0.17608643
-0.17547607
-0.17486572
-0.1739502
-0.17333984
-0.17242432
-0.17150879
-0.17059326
-0.16967773
-0.16876221
-0.1675415
-0.1663208
-0.1651001
-0.16418457
-0.16296387
-0.16204834
-0.16143799
-0.16113281
-0.16052246
-0.16021729
-0.16021729
-0.16021729
-0.16021729
-0.16021729
-0.16021729
-0.16021729
-0.16052246
-0.16082764
-0.16143799
-0.16174316
-0.16174316
-0.16174316
-0.16174316
-0.16143799
-0.16143799
-0.16113281
-0.16052246
-0.15960693
-0.15869141
-0.1574707
-0.15625
-0.1550293
-0.15350342
-0.15197754
-0.15045166
-0.14892578
-0.1473999
-0.1461792
-0.1449585
-0.14404297
-0.14312744
-0.14251709
-0.14221191
-0.14160156
-0.14160156
-0.14129639
-0.14160156
-0.14160156
-0.14190674
-0.14221191
-0.14282227
-0.14312744
-0.14343262
-0.14404297
-0.14434814
-0.14465332
-0.1449585
-0.1449585
-0.1449585
-0.1449585
-0.14465332
-0.14465332
-0.14434814
-0.14373779
-0.14312744
-0.14251709
-0.14160156
-0.14068604
-0.13946533
-0.13793945
-0.13641357
-0.13458252
-0.13275146
-0.13061523
-0.12878418
-0.12695312
-0.12512207
-0.12359619
-0.12207031
-0.12115479
-0.11993408
-0.11901855
-0.1184082
-0.11779785
-0.11749268
-0.11749268
-0.11749268
-0.11749268
-0.11749268
-0.11779785
-0.11779785
-0.11749268
-0.1171875
-0.11657715
-0.11535645
-0.11413574
-0.11291504
-0.11138916
-0.11016846
-0.10864258
-0.10742188
-0.10620117
-0.10467529
-0.10314941
-0.10101318
-0.099182129
-0.097045898
-0.094909668
-0.092773438
-0.090637207
-0.088806152
-0.086669922
-0.084533691
-0.082397461
-0.079956055
-0.077514648
-0.074768066
-0.07232666
-0.069885254
-0.067443848
-0.065002441
-0.062255859
-0.059814453
-0.057373047
-0.054931641
-0.05279541
-0.05065918
-0.048522949
-0.046691895
-0.044555664
-0.042114258
-0.039978027
-0.037536621
-0.034790039
-0.032043457
-0.029296875
-0.026550293
-0.023803711
-0.020751953
-0.01739502
-0.014038086
-0.010375977
-0.0067138672
-0.002746582
0.0012207031
0.0051879883
0.0094604492
0.013427734
0.01739502
0.02166748
0.026245117
0.030517578
0.035095215
0.039672852
0.043945312
0.047912598
0.051879883
0.055541992
0.059204102
0.062561035
0.066223145
0.069580078
0.073242188
0.076904297
0.080871582
0.084838867
0.088500977
0.09185791
0.09552002
0.098571777
0.10192871
0.10498047
0.10803223
0.11077881
0.11352539
0.1159668
0.1184082
0.12054443
0.12268066
0.12420654
0.12573242
0.12695312
0.12817383
0.12939453
0.13061523
0.13214111
0.13397217
0.13580322
0.13763428
0.13916016
0.14099121
0.14251709
0.14404297
0.14526367
0.1461792
0.14648438
0.14648438
0.14587402
0.1449585
0.14312744
0.14099121
0.13763428
0.13397217
0.12908936
0.12390137
0.11810303
0.11199951
0.105896
0.099487305
0.092773438
0.08605957
0.079345703
0.07232666
0.065307617
0.057983398
0.05065918
0.043334961
0.035705566
0.028076172
0.020141602
0.011901855
0.0033569336
-0.0051879883
-0.014038086
-0.023193359
-0.032958984
-0.042724609
-0.05279541
-0.063171387
-0.073242188
-0.083312988
-0.092773438
-0.10223389
-0.11108398
-0.11962891
-0.12786865
-0.13580322
-0.14373779
-0.15136719
-0.15869141
-0.16571045
-0.17211914
-0.17791748
-0.18310547
-0.18798828
-0.19287109
-0.19744873
-0.20202637
-0.206604
-0.21118164
-0.21575928
-0.21972656
-0.2230835
-0.22613525
-0.22857666
-0.23040771
-0.23223877
-0.23376465
-0.23498535
-0.23620605
-0.23712158
-0.23773193
-0.23834229
-0.23895264
-0.23925781
-0.23925781
-0.23956299
-0.23925781
-0.23925781
-0.23895264
-0.23895264
-0.23895264
-0.23925781
-0.23986816
-0.24047852
-0.24108887
-0.24169922
-0.24230957
-0.24291992
-0.24353027
-0.2444458
-0.24536133
-0.24627686
-0.24719238
-0.24810791
-0.24871826
-0.24932861
-0.25024414
-0.25115967
-0.25177002
-0.25238037
-0.25268555
-0.25268555
-0.25238037
-0.2520752
-0.25115967
-0.25054932
-0.24963379
-0.24841309
-0.24749756
-0.24658203
-0.24536133
-0.24414062
-0.24291992
-0.24200439
-0.24078369
-0.23956299
-0.23834229
-0.23712158
-0.23620605
-0.2355957
-0.23529053
-0.23529053
-0.2355957
-0.23651123
-0.23712158
-0.23773193
-0.23803711
-0.23834229
-0.23864746
-0.23864746
-0.23895264
-0.23956299
-0.24017334
-0.24078369
-0.24108887
-0.24078369
-0.24017334
-0.23956299
-0.23864746
-0.23803711
-0.23742676
-0.23712158
-0.23651123
-0.23590088
-0.2355957
-0.23498535
-0.23468018
-0.23406982
-0.23376465
-0.23345947
-0.2331543
-0.23284912
-0.23284912
-0.23284912
-0.23254395
-0.23193359
-0.23132324
-0.23040771
-0.22918701
-0.22796631
-0.22705078
-0.22613525
-0.22491455
-0.22399902
-0.22277832
-0.22155762
-0.22033691
-0.21942139
-0.21881104
-0.21850586
-0.21820068
-0.21820068
-0.21820068
-0.21850586
-0.21850586
-0.21881104
-0.21911621
-0.21942139
-0.22003174
-0.22064209
-0.22155762
-0.22216797
-0.2230835
-0.22369385
-0.22399902
-0.2243042
-0.22460938
-0.22460938
-0.22460938
-0.2243042
-0.22369385
-0.22247314
-0.22125244
-0.21972656
-0.21881104
-0.21759033
-0.2166748
-0.21514893
-0.21392822
-0.21240234
-0.21087646
-0.20965576
-0.20843506
-0.20751953
-0.20721436
-0.20690918
-0.20721436
-0.20721436
-0.20751953
-0.20782471
-0.20843506
-0.20843506
-0.20874023
-0.20874023
-0.20874023
-0.20874023
-0.20874023
-0.20874023
-0.20874023
-0.20874023
-0.20843506
-0.20812988
-0.20782471
-0.20751953
-0.20751953
-0.20812988
-0.20843506
-0.20935059
-0.20996094
-0.21057129
-0.21148682
-0.21179199
-0.21240234
-0.2130127
-0.21392822
-0.21453857
-0.21484375
-0.21514893
-0.21484375
-0.21392822
-0.2130127
-0.21179199
-0.21026611
-0.20874023
-0.20721436
-0.20568848
-0.20385742
-0.20202637
-0.20019531
-0.19836426
-0.19683838
-0.19561768
-0.19500732
-0.19439697
-0.19439697
-0.19439697
-0.19470215
-0.19500732
-0.19592285
-0.19744873
-0.19866943
-0.20019531
-0.20172119
-0.20294189
-0.2041626
-0.2053833
-0.206604
-0.20782471
-0.20904541
-0.20996094
-0.21026611
-0.21057129
-0.21026611
-0.20996094
-0.20935059
-0.20874023
-0.20782471
-0.20690918
-0.20568848
-0.20477295
-0.20355225
-0.20233154
-0.20141602
-0.20050049
-0.19927979
-0.19866943
-0.19775391
-0.19683838
-0.19622803
-0.19592285
-0.19592285
-0.19592285
-0.1965332
-0.19683838
-0.19744873
-0.19744873
-0.19775391
-0.19775391
-0.19805908
-0.19866943
-0.19927979
-0.19989014
-0.20019531
-0.20050049
-0.20080566
-0.20111084
-0.20111084
-0.20141602
-0.20141602
-0.20141602
-0.20111084
-0.20080566
-0.20080566
-0.20050049
-0.20019531
-0.19989014
-0.19958496
-0.19927979
-0.19927979
-0.19927979
-0.19958496
-0.19958496
-0.19989014
-0.19989014
-0.20019531
-0.20050049
-0.20111084
-0.20172119
-0.20233154
-0.20294189
-0.20355225
-0.2041626
-0.20477295
-0.2053833
-0.20599365
-0.206604
-0.20690918
-0.20690918
-0.20690918
-0.20690918
-0.20690918
-0.20690918
-0.20690918
-0.20690918
-0.206604
-0.20568848
-0.20507812
-0.2041626
-0.20324707
-0.20263672
-0.20202637
-0.20111084
-0.20019531
-0.19897461
-0.19805908
-0.19744873
-0.19714355
-0.19683838
-0.19683838
-0.19714355
-0.19714355
-0.19775391
-0.19805908
-0.19836426
-0.19897461
-0.19989014
-0.20050049
-0.20111084
-0.20172119
-0.20233154
-0.20263672
-0.20263672
-0.20263672
-0.20233154
-0.20202637
-0.20172119
-0.20141602
-0.20111084
-0.20080566
-0.20050049
-0.20019531
-0.20019531
-0.19989014
-0.19989014
-0.19958496
-0.19958496
-0.19958496
-0.19989014
-0.19989014
-0.20019531
-0.19989014
-0.19958496
-0.19897461
-0.19836426
-0.19775391
-0.19744873
-0.19683838
-0.19622803
-0.19561768
-0.19500732
-0.19439697
-0.19378662
-0.19378662
-0.19348145
-0.19317627
-0.19317627
-0.19317627
-0.19378662
-0.19439697
-0.1953125
-0.19622803
-0.19714355
-0.19805908
-0.19866943
-0.19958496
-0.20019531
-0.20050049
-0.20080566
-0.20111084
-0.20111084
-0.20111084
-0.20111084
-0.20111084
-0.20111084
-0.20111084
-0.20111084
-0.20141602
-0.20141602
-0.20141602
-0.20141602
-0.20141602
-0.20111084
-0.20080566
-0.20080566
-0.20080566
-0.20111084
-0.20172119
-0.20233154
-0.20233154
-0.20233154
-0.20172119
-0.20111084
-0.20050049
-0.19989014
-0.19927979
-0.19866943
-0.19836426
-0.19805908
-0.19775391
-0.19744873
-0.19683838
-0.19592285
-0.1953125
-0.19439697
-0.19348145
-0.19287109
-0.19226074
-0.19195557
-0.19195557
-0.19165039
-0.19165039
-0.19165039
-0.19165039
-0.19195557
-0.19226074
-0.19256592
-0.19287109
-0.19348145
-0.19439697
-0.1953125
-0.19592285
-0.19622803
-0.1965332
-0.19683838
-0.19683838
-0.19683838
-0.1965332
-0.1965332
-0.19622803
-0.19561768
-0.19500732
-0.19378662
-0.19287109
-0.19165039
-0.19073486
-0.19012451
-0.18951416
-0.18920898
-0.18890381
-0.18890381
-0.18859863
-0.18829346
-0.18829346
-0.18798828
-0.18768311
-0.18768311
-0.18768311
-0.18737793
-0.18737793
-0.18676758
-0.1864624
-0.18585205
-0.1852417
-0.18463135
-0.18432617
-0.184021
-0.18371582
-0.18371582
-0.18371582
-0.18371582
-0.184021
-0.18463135
-0.1852417
-0.18615723
-0.18707275
-0.18768311
-0.18829346
-0.18890381
-0.18951416
-0.18981934
-0.18981934
-0.19012451
-0.19012451
-0.18981934
-0.18981934
-0.18951416
-0.18890381
-0.18859863
-0.18798828
-0.18737793
-0.1864624
-0.18554688
-0.18432617
-0.18249512
-0.18066406
-0.17852783
-0.1763916
-0.17425537
-0.17211914
-0.16967773
-0.16723633
-0.16479492
-0.16204834
-0.15899658
-0.15594482
-0.15319824
-0.15045166
-0.14770508
-0.1449585
-0.14251709
-0.14038086
-0.1385498
-0.13702393
-0.13519287
-0.13366699
-0.13153076
-0.12939453
-0.1272583
-0.12512207
-0.12329102
-0.12115479
-0.11932373
-0.1171875
-0.11505127
-0.11291504
-0.11047363
-0.10803223
-0.10528564
-0.10253906
-0.099487305
-0.096435547
-0.093078613
-0.090026855
-0.086975098
-0.084228516
-0.081481934
-0.079345703
-0.077514648
-0.075683594
-0.074462891
-0.073852539
-0.073547363
-0.073547363
-0.074157715
-0.075378418
-0.077209473
-0.079650879
-0.082397461
-0.085449219
-0.088500977
-0.091552734
-0.094909668
-0.097961426
-0.10101318
-0.10437012
-0.10742188
-0.11047363
-0.11352539
-0.11657715
-0.11962891
-0.12268066
-0.12573242
-0.12908936
-0.13275146
-0.13641357
-0.14038086
-0.14434814
-0.14801025
-0.15167236
-0.15533447
-0.15838623
-0.16174316
-0.16479492
-0.16784668
-0.17059326
-0.17333984
-0.17608643
-0.17852783
-0.18127441
-0.18341064
-0.18554688
-0.18768311
-0.18920898
-0.19073486
-0.19226074
-0.19348145
-0.19500732
-0.19683838
-0.19866943
-0.19989014
-0.20111084
-0.20141602
-0.20141602
-0.20141602
-0.20111084
-0.20050049
-0.19989014
-0.19927979
-0.19805908
-0.19683838
-0.19561768
-0.19439697
-0.19317627
-0.19226074
-0.19134521
-0.19073486
-0.19042969
-0.19012451
-0.18981934
-0.18951416
-0.18951416
-0.18920898
-0.18890381
-0.18890381
-0.18890381
-0.18890381
-0.18920898
-0.18920898
-0.18920898
-0.18951416
-0.18951416
-0.18951416
-0.18951416
-0.18920898
-0.18890381
-0.18890381
-0.18890381
-0.18920898
-0.18951416
-0.18981934
-0.19012451
-0.19042969
-0.19073486
-0.19073486
-0.19104004
-0.19104004
-0.19104004
-0.19073486
-0.19073486
-0.19042969
-0.19012451
-0.18981934
-0.18920898
-0.18859863
-0.18768311
-0.18676758
-0.18554688
-0.18432617
-0.18280029
-0.18127441
-0.18005371
-0.17883301
-0.17791748
-0.17700195
-0.1763916
-0.17608643
-0.17547607
-0.1751709
-0.17486572
-0.1751709
-0.1751709
-0.17547607
-0.17608643
-0.1763916
-0.17669678
-0.17669678
-0.17730713
-0.1776123
-0.17822266
-0.17883301
-0.17974854
-0.18066406
-0.18188477
-0.18341064
-0.1852417
-0.18707275
-0.18920898
-0.19134521
-0.19317627
-0.19439697
-0.19561768
-0.19622803
-0.19622803
-0.19592285
-0.1953125
-0.1940918
-0.19195557
-0.18920898
-0.1852417
-0.18035889
-0.17425537
-0.1663208
-0.15716553
-0.14678955
-0.1348877
-0.12176514
-0.10742188
-0.090942383
-0.072021484
-0.050354004
-0.025024414
0.0039672852
0.037231445
0.074157715
0.11413574
0.15594482
0.19836426
0.24047852
0.28137207
0.32043457
0.35675049
0.38909912
0.41656494
0.43762207
0.45135498
0.45623779
0.45227051
0.4385376
0.41534424
0.38330078
0.34332275
0.29663086
0.2444458
0.18829346
0.12939453
0.069580078
0.010070801
-0.047607422
-0.10253906
-0.15350342
-0.19989014
-0.24108887
-0.27618408
-0.30548096
-0.32806396
-0.34454346
-0.35491943
-0.35949707
-0.35949707
-0.35522461
-0.34729004
-0.33691406
-0.32440186
-0.31005859
-0.29449463
-0.27832031
-0.26153564
-0.24505615
-0.22888184
-0.21362305
-0.19927979
-0.18615723
-0.17425537
-0.16418457
-0.15533447
-0.14801025
-0.14221191
-0.1373291
-0.13366699
-0.13092041
-0.12939453
-0.128479
-0.12817383
-0.12786865
-0.12756348
-0.12695312
-0.12634277
-0.12542725
-0.12451172
-0.12329102
-0.12207031
-0.12084961
-0.11962891
-0.1184082
-0.11779785
-0.11688232
-0.11657715
-0.11627197
-0.1159668
-0.11566162
-0.11505127
-0.11474609
-0.11474609
-0.11474609
-0.11505127
-0.11535645
-0.11566162
-0.11566162
-0.11535645
-0.11505127
-0.11474609
-0.11444092
-0.11413574
-0.11383057
-0.11352539
-0.11291504
-0.11260986
-0.11260986
-0.11230469
-0.11199951
-0.11138916
-0.11047363
-0.10986328
-0.10894775
-0.1083374
-0.10742188
-0.10681152
-0.105896
-0.10467529
-0.10375977
-0.10253906
-0.10162354
-0.10040283
-0.099487305
-0.098571777
-0.09765625
-0.096740723
-0.096130371
-0.095825195
-0.09552002
-0.095214844
-0.094909668
-0.094909668
-0.094909668
-0.094909668
-0.094909668
-0.094909668
-0.094909668
-0.095214844
-0.09552002
-0.09552002
-0.09552002
-0.09552002
-0.095214844
-0.094909668
-0.094604492
-0.093688965
-0.093078613
-0.092468262
-0.09185791
-0.091247559
-0.090332031
-0.089416504
-0.087890625
-0.086364746
-0.085144043
-0.083618164
-0.082397461
-0.081176758
-0.079956055
-0.078735352
-0.077209473
-0.075378418
-0.073852539
-0.07232666
-0.070800781
-0.069274902
-0.067749023
-0.06652832
-0.065002441
-0.063781738
-0.062561035
-0.061645508
-0.06072998
-0.059814453
-0.058898926
-0.057983398
-0.057067871
-0.056152344
-0.055541992
-0.054931641
-0.054626465
-0.054321289
-0.054321289
-0.054321289
-0.054016113
-0.053405762
-0.052490234
-0.051879883
-0.050964355
-0.050048828
-0.048828125
-0.047607422
-0.046386719
-0.04486084
-0.043334961
-0.041503906
-0.039672852
-0.037536621
-0.035400391
-0.03326416
-0.030822754
-0.028686523
-0.026550293
-0.024414062
-0.022277832
-0.020141602
-0.017700195
-0.015258789
-0.012817383
-0.010375977
-0.0079345703
-0.0057983398
-0.0033569336
-0.0012207031
0.0012207031
0.0036621094
0.0064086914
0.0088500977
0.01159668
0.014343262
0.016784668
0.019226074
0.02166748
0.024414062
0.026855469
0.029907227
0.032958984
0.036010742
0.039367676
0.043029785
0.046386719
0.049743652
0.053100586
0.056762695
0.06072998
0.064697266
0.068664551
0.072937012
0.077209473
0.081787109
0.085754395
0.090026855
0.094299316
0.098571777
0.10284424
0.1071167
0.11169434
0.11627197
0.12084961
0.12542725
0.13000488
0.13397217
0.13793945
0.14160156
0.1449585
0.14862061
0.15258789
0.15655518
0.16052246
0.16418457
0.16784668
0.17150879
0.17486572
0.17852783
0.18188477
0.1852417
0.18890381
0.19226074
0.19561768
0.19897461
0.20233154
0.2053833
0.20843506
0.21087646
0.2130127
0.21453857
0.21606445
0.21697998
0.21789551
0.21820068
0.21850586
0.21820068
0.21789551
0.21759033
0.2166748
0.21575928
0.2142334
0.21240234
0.20996094
0.20751953
0.20477295
0.20202637
0.19897461
0.19561768
0.19195557
0.18768311
0.18280029
0.1776123
0.17150879
0.1651001
0.15838623
0.15136719
0.14404297
0.13671875
0.12908936
0.12145996
0.11352539
0.10559082
0.097351074
0.088806152
0.080566406
0.071716309
0.063171387
0.054931641
0.046691895
0.038452148
0.030517578
0.022583008
0.014648438
0.0067138672
-0.0012207031
-0.0094604492
-0.01739502
-0.025634766
-0.033874512
-0.042419434
-0.05065918
-0.058898926
-0.066833496
-0.074462891
-0.082092285
-0.089111328
-0.096130371
-0.10314941
-0.10955811
-0.1159668
-0.12176514
-0.1272583
-0.13214111
-0.13671875
-0.14068604
-0.14465332
-0.14801025
-0.15136719
-0.15411377
-0.15655518
-0.15838623
-0.15991211
-0.16143799
-0.16296387
-0.16418457
-0.16571045
-0.16723633
-0.16876221
-0.17028809
-0.17181396
-0.17333984
-0.17486572
-0.1763916
-0.17822266
-0.17974854
-0.18127441
-0.18249512
-0.18371582
-0.18493652
-0.18615723
-0.18737793
-0.18829346
-0.18890381
-0.18920898
-0.18859863
-0.18768311
-0.18676758
-0.1852417
-0.184021
-0.18310547
-0.18218994
-0.18127441
-0.18035889
-0.17944336
-0.17852783
-0.1776123
-0.17700195
-0.17700195
-0.17700195
-0.17730713
-0.1776123
-0.17791748
-0.17822266
-0.17822266
-0.17791748
-0.1776123
-0.17700195
-0.17669678
-0.17608643
-0.17578125
-0.1751709
-0.17456055
-0.17364502
-0.17272949
-0.17181396
-0.17089844
-0.16998291
-0.16937256
-0.16906738
-0.16906738
-0.16937256
-0.16937256
-0.16967773
-0.16998291
-0.16998291
-0.16998291
-0.16998291
-0.16998291
-0.16967773
-0.16937256
-0.16906738
-0.16876221
-0.16815186
-0.1675415
-0.16662598
-0.16540527
-0.16448975
-0.16326904
-0.16265869
-0.16204834
-0.16143799
-0.16113281
-0.16052246
-0.15960693
-0.15869141
-0.1574707
-0.15655518
-0.15563965
-0.1550293
-0.15441895
-0.15350342
-0.15258789
-0.15167236
-0.15045166
-0.14953613
-0.14862061
-0.14770508
-0.14678955
-0.1461792
-0.14587402
-0.14556885
-0.14556885
-0.14526367
-0.14526367
-0.1449585
-0.14465332
-0.14434814
-0.14404297
-0.14373779
-0.14343262
-0.14282227
-0.14190674
-0.14099121
-0.14007568
-0.13885498
-0.13793945
-0.13671875
-0.13580322
-0.1348877
-0.13427734
-0.13397217
-0.13366699
-0.13366699
-0.13366699
-0.13336182
-0.13305664
-0.13305664
-0.13305664
-0.13336182
-0.13366699
-0.13397217
-0.13397217
-0.13397217
-0.13397217
-0.13336182
-0.13275146
-0.13214111
-0.13122559
-0.13061523
-0.13000488
-0.12969971
-0.12969971
-0.12939453
-0.12939453
-0.12939453
-0.12908936
-0.12908936
-0.12908936
-0.12908936
-0.12939453
-0.12969971
-0.13000488
-0.13031006
-0.13061523
-0.13061523
-0.13031006
-0.13000488
-0.12969971
-0.12908936
-0.12878418
-0.12817383
-0.12756348
-0.12664795
-0.1260376
-0.12512207
-0.12451172
-0.12359619
-0.12298584
-0.12237549
-0.12207031
-0.12145996
-0.12084961
-0.12054443
-0.12054443
-0.12084961
-0.12115479
-0.12145996
-0.12176514
-0.12237549
-0.12298584
-0.12329102
-0.12359619
-0.12420654
-0.12451172
-0.12481689
-0.12512207
-0.12573242
-0.1260376
-0.12664795
-0.12756348
-0.128479
-0.12939453
-0.13000488
-0.13092041
-0.13153076
-0.13183594
-0.13244629
-0.13275146
-0.13305664
-0.13305664
-0.13305664
-0.13305664
-0.13275146
-0.13214111
-0.13153076
-0.13061523
-0.12939453
-0.12817383
-0.12664795
-0.12512207
-0.12390137
-0.12237549
-0.12145996
-0.12054443
-0.11993408
-0.11932373
-0.11871338
-0.1184082
-0.1184082
-0.1184082
-0.11871338
-0.11871338
-0.11901855
-0.11932373
-0.11932373
-0.11962891
-0.11993408
-0.12054443
-0.12115479
-0.12207031
-0.12298584
-0.12390137
-0.12420654
-0.12451172
-0.12481689
-0.12481689
-0.12512207
-0.12542725
-0.12573242
-0.12634277
-0.12664795
-0.12695312
-0.12695312
-0.12695312
-0.12695312
-0.12664795
-0.12634277
-0.1260376
-0.12542725
-0.12542725
-0.12512207
-0.12542725
-0.12542725
-0.12573242
-0.12573242
-0.12573242
-0.12573242
-0.12573242
-0.12573242
-0.12573242
-0.12573242
-0.1260376
-0.1260376
-0.1260376
-0.12573242
-0.12573242
-0.12573242
-0.12542725
-0.12512207
-0.12512207
-0.12512207
-0.12542725
-0.1260376
-0.12634277
-0.12695312
-0.1272583
-0.12786865
-0.128479
-0.12908936
-0.12969971
-0.13000488
-0.13000488
-0.13000488
-0.13000488
-0.13031006
-0.13031006
-0.13000488
-0.12969971
-0.12908936
-0.12817383
-0.12695312
-0.12573242
-0.12451172
-0.12329102
-0.12207031
-0.12084961
-0.12023926
-0.11962891
-0.11901855
-0.11901855
-0.11871338
-0.11901855
-0.11901855
-0.11932373
-0.11993408
-0.12023926
-0.12054443
-0.12115479
-0.12145996
-0.12176514
-0.12237549
-0.12298584
-0.12359619
-0.12420654
-0.12451172
-0.12481689
-0.12512207
-0.12512207
-0.12481689
-0.12420654
-0.12359619
-0.12268066
-0.12145996
-0.12054443
-0.11962891
-0.11901855
-0.11871338
-0.1184082
-0.11810303
-0.11779785
-0.1171875
-0.11657715
-0.1159668
-0.11566162
-0.11535645
-0.11535645
-0.11566162
