dataCATIEwristankleankle.acq
1.0 msec/sample
1 channels
ECG (.05 - 35 Hz)
mV
CH2,
132840,
-0.01373291
-0.014953613
-0.015869141
-0.016784668
-0.01739502
-0.018005371
-0.018920898
-0.01953125
-0.020141602
-0.020751953
-0.020751953
-0.020751953
-0.021057129
-0.02166748
-0.022888184
-0.024414062
-0.025939941
-0.027770996
-0.029907227
-0.032348633
-0.035095215
-0.038146973
-0.041503906
-0.04486084
-0.048217773
-0.051574707
-0.054931641
-0.057983398
-0.06072998
-0.063171387
-0.065612793
-0.068054199
-0.069885254
-0.071716309
-0.073242188
-0.074462891
-0.075378418
-0.075683594
-0.07598877
-0.076293945
-0.07598877
-0.07598877
-0.075683594
-0.075378418
-0.075073242
-0.075378418
-0.075683594
-0.07598877
-0.076599121
-0.077209473
-0.078125
-0.079040527
-0.079956055
-0.080871582
-0.081787109
-0.082397461
-0.083007812
-0.083312988
-0.083312988
-0.083312988
-0.083312988
-0.083312988
-0.083312988
-0.083007812
-0.082397461
-0.082092285
-0.081481934
-0.081176758
-0.080871582
-0.080871582
-0.080871582
-0.081481934
-0.082397461
-0.083007812
-0.08392334
-0.084533691
-0.084838867
-0.085449219
-0.085754395
-0.086364746
-0.086364746
-0.08605957
-0.085754395
-0.085449219
-0.084838867
-0.084533691
-0.08392334
-0.083618164
-0.083007812
-0.082702637
-0.082092285
-0.081481934
-0.080871582
-0.08026123
-0.079956055
-0.079650879
-0.079040527
-0.078735352
-0.078430176
-0.078125
-0.077819824
-0.077819824
-0.078125
-0.077819824
-0.077514648
-0.077209473
-0.076904297
-0.076904297
-0.076904297
-0.077209473
-0.077819824
-0.078430176
-0.079345703
-0.08026123
-0.080871582
-0.081176758
-0.081481934
-0.081176758
-0.081176758
-0.080871582
-0.08026123
-0.079650879
-0.078735352
-0.077819824
-0.076904297
-0.07598877
-0.074768066
-0.074157715
-0.073852539
-0.073547363
-0.073852539
-0.073852539
-0.074462891
-0.074768066
-0.075378418
-0.075683594
-0.076293945
-0.076599121
-0.077209473
-0.077514648
-0.077819824
-0.077819824
-0.077819824
-0.077514648
-0.077209473
-0.076293945
-0.075378418
-0.074157715
-0.072937012
-0.071716309
-0.070800781
-0.069580078
-0.068359375
-0.067443848
-0.066833496
-0.06652832
-0.066833496
-0.067138672
-0.067749023
-0.068054199
-0.068359375
-0.068664551
-0.068969727
-0.068969727
-0.069274902
-0.069274902
-0.069580078
-0.069885254
-0.069885254
-0.069580078
-0.068969727
-0.068054199
-0.067138672
-0.066223145
-0.065307617
-0.064697266
-0.06439209
-0.063781738
-0.063476562
-0.062561035
-0.062255859
-0.061645508
-0.061645508
-0.061645508
-0.061645508
-0.061645508
-0.061645508
-0.061340332
-0.061035156
-0.060424805
-0.060119629
-0.059509277
-0.059509277
-0.059204102
-0.059204102
-0.059509277
-0.059509277
-0.059814453
-0.060119629
-0.06072998
-0.061035156
-0.061645508
-0.062561035
-0.063171387
-0.064086914
-0.064697266
-0.065612793
-0.066223145
-0.066833496
-0.067138672
-0.067443848
-0.067443848
-0.067443848
-0.066833496
-0.065917969
-0.065002441
-0.064086914
-0.063171387
-0.062561035
-0.061645508
-0.061035156
-0.060424805
-0.059814453
-0.059204102
-0.05859375
-0.058288574
-0.057678223
-0.057678223
-0.057373047
-0.057678223
-0.057983398
-0.05859375
-0.059204102
-0.059814453
-0.06072998
-0.061340332
-0.061950684
-0.062866211
-0.064086914
-0.065002441
-0.065917969
-0.066833496
-0.067443848
-0.068054199
-0.068359375
-0.068664551
-0.068969727
-0.068969727
-0.068969727
-0.068664551
-0.068054199
-0.067443848
-0.06652832
-0.065612793
-0.064697266
-0.063781738
-0.062866211
-0.061950684
-0.061035156
-0.060424805
-0.059814453
-0.059814453
-0.060119629
-0.06072998
-0.061950684
-0.063171387
-0.065002441
-0.066833496
-0.068664551
-0.070800781
-0.072631836
-0.074462891
-0.076599121
-0.078430176
-0.079956055
-0.081176758
-0.082092285
-0.082702637
-0.083007812
-0.082702637
-0.082092285
-0.081481934
-0.08026123
-0.079345703
-0.078125
-0.076904297
-0.07598877
-0.075378418
-0.074768066
-0.074768066
-0.074768066
-0.074768066
-0.074768066
-0.074768066
-0.075073242
-0.075378418
-0.075683594
-0.075683594
-0.075683594
-0.075073242
-0.074462891
-0.073852539
-0.073242188
-0.072631836
-0.07232666
-0.071716309
-0.071411133
-0.071105957
-0.07019043
-0.069274902
-0.068359375
-0.067443848
-0.066833496
-0.06652832
-0.06652832
-0.066833496
-0.067138672
-0.067749023
-0.068664551
-0.069274902
-0.07019043
-0.071105957
-0.072021484
-0.072631836
-0.072937012
-0.073242188
-0.073547363
-0.073547363
-0.073242188
-0.072631836
-0.071411133
-0.07019043
-0.068664551
-0.066833496
-0.065307617
-0.063781738
-0.062866211
-0.061950684
-0.061645508
-0.061645508
-0.061950684
-0.062866211
-0.063781738
-0.065307617
-0.066833496
-0.068664551
-0.070800781
-0.072937012
-0.075073242
-0.077209473
-0.078735352
-0.079650879
-0.079956055
-0.079345703
-0.078125
-0.075683594
-0.072631836
-0.068969727
-0.065002441
-0.06072998
-0.05645752
-0.052185059
-0.047607422
-0.043029785
-0.038452148
-0.034179688
-0.029907227
-0.026245117
-0.022888184
-0.020141602
-0.017700195
-0.015563965
-0.013427734
-0.011901855
-0.010986328
-0.010375977
-0.010070801
-0.009765625
-0.009765625
-0.0094604492
-0.0088500977
-0.0082397461
-0.0073242188
-0.0064086914
-0.0048828125
-0.0036621094
-0.0021362305
-0.00091552734
0.00061035156
0.0024414062
0.0042724609
0.0061035156
0.0082397461
0.010375977
0.012512207
0.014953613
0.016784668
0.018920898
0.020446777
0.021972656
0.023193359
0.024414062
0.025634766
0.026855469
0.028076172
0.029907227
0.031433105
0.032958984
0.033874512
0.034484863
0.034790039
0.035095215
0.035400391
0.035705566
0.035400391
0.034790039
0.033569336
0.031433105
0.029296875
0.026245117
0.022583008
0.018310547
0.013427734
0.0082397461
0.002746582
-0.0030517578
-0.0091552734
-0.015869141
-0.022583008
-0.029602051
-0.036621094
-0.043640137
-0.050048828
-0.056152344
-0.062561035
-0.068664551
-0.074768066
-0.08026123
-0.085144043
-0.090026855
-0.094299316
-0.097961426
-0.10131836
-0.10375977
-0.105896
-0.10742188
-0.1083374
-0.10894775
-0.10925293
-0.10894775
-0.10803223
-0.1071167
-0.10528564
-0.10345459
-0.10101318
-0.098876953
-0.096435547
-0.093994141
-0.091552734
-0.089416504
-0.087585449
-0.08605957
-0.084838867
-0.084228516
-0.084533691
-0.085144043
-0.08605957
-0.086975098
-0.088195801
-0.089111328
-0.090332031
-0.091552734
-0.093078613
-0.094299316
-0.09552002
-0.096740723
-0.097351074
-0.097961426
-0.098266602
-0.098571777
-0.098266602
-0.09765625
-0.097045898
-0.096435547
-0.09552002
-0.094909668
-0.094604492
-0.094299316
-0.094909668
-0.095825195
-0.09765625
-0.09979248
-0.10253906
-0.105896
-0.10955811
-0.11322021
-0.11657715
-0.11932373
-0.12084961
-0.12084961
-0.11932373
-0.11566162
-0.10955811
-0.10070801
-0.089111328
-0.074157715
-0.055541992
-0.03326416
-0.0067138672
0.024108887
0.059509277
0.099182129
0.14282227
0.18981934
0.23956299
0.29205322
0.34637451
0.4019165
0.45837402
0.51483154
0.57067871
0.62591553
0.67993164
0.7321167
0.78216553
0.82946777
0.87371826
0.91461182
0.95153809
0.98449707
1.0128784
1.036377
1.0540771
1.0653687
1.0696411
1.0665894
1.0552979
1.0360718
1.0089111
0.97381592
0.93139648
0.88195801
0.82611084
0.76446533
0.69793701
0.62713623
0.55328369
0.47790527
0.40222168
0.32775879
0.25604248
0.18829346
0.12542725
0.068664551
0.018920898
-0.024108887
-0.059509277
-0.088195801
-0.11047363
-0.1272583
-0.13916016
-0.14648438
-0.14984131
-0.15045166
-0.14862061
-0.1449585
-0.14068604
-0.13580322
-0.13092041
-0.12664795
-0.12298584
-0.11993408
-0.11779785
-0.11657715
-0.11627197
-0.11657715
-0.1171875
-0.1184082
-0.11993408
-0.12145996
-0.12298584
-0.12481689
-0.12664795
-0.12817383
-0.12969971
-0.13122559
-0.13244629
-0.13397217
-0.13519287
-0.1361084
-0.1373291
-0.13824463
-0.13885498
-0.13946533
-0.13977051
-0.13977051
-0.13977051
-0.13977051
-0.13977051
-0.13977051
-0.13977051
-0.13977051
-0.13946533
-0.13916016
-0.13885498
-0.13885498
-0.1385498
-0.13885498
-0.13916016
-0.13946533
-0.13946533
-0.13946533
-0.13946533
-0.13946533
-0.13916016
-0.13916016
-0.13885498
-0.1385498
-0.13824463
-0.13793945
-0.13763428
-0.13702393
-0.13641357
-0.13580322
-0.13519287
-0.1348877
-0.13427734
-0.13397217
-0.13397217
-0.13397217
-0.13397217
-0.13427734
-0.13458252
-0.1348877
-0.13519287
-0.13549805
-0.13580322
-0.13580322
-0.13580322
-0.13549805
-0.13519287
-0.13458252
-0.13397217
-0.13336182
-0.13275146
-0.13214111
-0.13153076
-0.13092041
-0.13031006
-0.12939453
-0.128479
-0.12756348
-0.12695312
-0.12664795
-0.1260376
-0.12573242
-0.12512207
-0.12451172
-0.12390137
-0.12298584
-0.12207031
-0.12115479
-0.12054443
-0.11993408
-0.11993408
-0.11962891
-0.11962891
-0.11932373
-0.11901855
-0.11871338
-0.11871338
-0.11901855
-0.11962891
-0.12023926
-0.12084961
-0.12145996
-0.12176514
-0.12207031
-0.12176514
-0.12115479
-0.12023926
-0.11932373
-0.1184082
-0.1171875
-0.1159668
-0.11474609
-0.11291504
-0.11138916
-0.10955811
-0.10772705
-0.10650635
-0.10528564
-0.10467529
-0.10406494
-0.10375977
-0.10375977
-0.10345459
-0.10314941
-0.10253906
-0.10192871
-0.10131836
-0.10040283
-0.099182129
-0.097961426
-0.096130371
-0.093994141
-0.091552734
-0.088806152
-0.08605957
-0.083312988
-0.080566406
-0.078125
-0.075378418
-0.072937012
-0.070495605
-0.068054199
-0.065917969
-0.063781738
-0.061645508
-0.059509277
-0.057373047
-0.054931641
-0.052490234
-0.049743652
-0.046691895
-0.043334961
-0.039978027
-0.036010742
-0.032348633
-0.028991699
-0.025634766
-0.022583008
-0.01953125
-0.016784668
-0.014038086
-0.01159668
-0.0094604492
-0.0076293945
-0.0061035156
-0.0045776367
-0.0036621094
-0.0024414062
-0.0015258789
-0.00030517578
0.00091552734
0.0024414062
0.0039672852
0.0057983398
0.0079345703
0.009765625
0.01159668
0.013427734
0.015258789
0.01739502
0.019226074
0.021057129
0.022888184
0.024414062
0.025634766
0.026245117
0.026855469
0.026855469
0.026245117
0.025634766
0.024719238
0.023498535
0.022583008
0.021362305
0.019836426
0.018310547
0.016174316
0.014038086
0.011291504
0.0085449219
0.0057983398
0.0030517578
0.00061035156
-0.0018310547
-0.0039672852
-0.0061035156
-0.0079345703
-0.010070801
-0.011901855
-0.014038086
-0.016174316
-0.018005371
-0.020141602
-0.021972656
-0.023803711
-0.025634766
-0.02746582
-0.028991699
-0.030822754
-0.032958984
-0.035095215
-0.037231445
-0.039672852
-0.041503906
-0.043334961
-0.045166016
-0.046691895
-0.048217773
-0.049743652
-0.050964355
-0.052490234
-0.053710938
-0.054931641
-0.056152344
-0.057067871
-0.057678223
-0.058288574
-0.058288574
-0.05859375
-0.058288574
-0.058288574
-0.05859375
-0.05859375
-0.05859375
-0.05859375
-0.05859375
-0.05859375
-0.058898926
-0.059204102
-0.059814453
-0.06072998
-0.061950684
-0.063171387
-0.064086914
-0.065307617
-0.06652832
-0.067443848
-0.068359375
-0.069580078
-0.070495605
-0.071411133
-0.072021484
-0.072937012
-0.073547363
-0.073852539
-0.074157715
-0.074157715
-0.073852539
-0.073242188
-0.07232666
-0.071105957
-0.069885254
-0.068664551
-0.067443848
-0.066223145
-0.065307617
-0.064086914
-0.063171387
-0.061950684
-0.061035156
-0.060119629
-0.059814453
-0.059509277
-0.059814453
-0.060424805
-0.061035156
-0.061950684
-0.063171387
-0.064697266
-0.065917969
-0.067443848
-0.068664551
-0.069885254
-0.071105957
-0.072021484
-0.072937012
-0.073547363
-0.073547363
-0.073547363
-0.073242188
-0.072631836
-0.07232666
-0.071716309
-0.071105957
-0.070495605
-0.069885254
-0.069580078
-0.068969727
-0.068359375
-0.067749023
-0.067138672
-0.06652832
-0.066223145
-0.065612793
-0.065002441
-0.064697266
-0.064086914
-0.063476562
-0.063171387
-0.062561035
-0.062255859
-0.061645508
-0.061035156
-0.060119629
-0.059204102
-0.057983398
-0.056762695
-0.055541992
-0.054626465
-0.053710938
-0.05279541
-0.051879883
-0.050964355
-0.050354004
-0.049438477
-0.048828125
-0.048522949
-0.048522949
-0.048522949
-0.049133301
-0.049438477
-0.050048828
-0.05065918
-0.051269531
-0.052185059
-0.053100586
-0.053710938
-0.054626465
-0.055236816
-0.055541992
-0.055541992
-0.055541992
-0.055236816
-0.054931641
-0.054321289
-0.053405762
-0.05279541
-0.052185059
-0.051574707
-0.050964355
-0.050354004
-0.049743652
-0.049438477
-0.049133301
-0.048828125
-0.048828125
-0.048828125
-0.048828125
-0.049133301
-0.049438477
-0.049438477
-0.049743652
-0.050048828
-0.050354004
-0.05065918
-0.05065918
-0.051269531
-0.051269531
-0.051574707
-0.051574707
-0.051269531
-0.050964355
-0.050964355
-0.050964355
-0.050964355
-0.051574707
-0.051879883
-0.052490234
-0.053405762
-0.054016113
-0.054626465
-0.055541992
-0.056152344
-0.057067871
-0.057983398
-0.05859375
-0.059204102
-0.059814453
-0.060119629
-0.060424805
-0.06072998
-0.06072998
-0.061035156
-0.061035156
-0.06072998
-0.06072998
-0.060424805
-0.060424805
-0.060119629
-0.060119629
-0.060119629
-0.060119629
-0.060119629
-0.060424805
-0.060424805
-0.060424805
-0.060424805
-0.06072998
-0.06072998
-0.06072998
-0.061035156
-0.061340332
-0.061645508
-0.061950684
-0.062561035
-0.062866211
-0.063476562
-0.063781738
-0.06439209
-0.065002441
-0.065917969
-0.06652832
-0.067138672
-0.067749023
-0.068359375
-0.068359375
-0.068664551
-0.068664551
-0.068359375
-0.067749023
-0.066833496
-0.066223145
-0.065612793
-0.065002441
-0.064697266
-0.06439209
-0.064086914
-0.064086914
-0.064086914
-0.064086914
-0.064086914
-0.06439209
-0.064697266
-0.065002441
-0.065307617
-0.065612793
-0.065917969
-0.066223145
-0.06652832
-0.066833496
-0.066833496
-0.066833496
-0.066833496
-0.066833496
-0.067138672
-0.067443848
-0.067749023
-0.068359375
-0.068969727
-0.069274902
-0.069580078
-0.069580078
-0.069885254
-0.069885254
-0.07019043
-0.07019043
-0.069885254
-0.069580078
-0.068969727
-0.068054199
-0.067138672
-0.066223145
-0.065612793
-0.064697266
-0.063781738
-0.062866211
-0.062255859
-0.061950684
-0.061950684
-0.062255859
-0.062866211
-0.063781738
-0.064697266
-0.065917969
-0.067138672
-0.068054199
-0.068969727
-0.07019043
-0.071105957
-0.07232666
-0.073242188
-0.073852539
-0.073852539
-0.073547363
-0.073242188
-0.072631836
-0.072021484
-0.071411133
-0.070800781
-0.070495605
-0.07019043
-0.069885254
-0.069885254
-0.07019043
-0.07019043
-0.070495605
-0.070800781
-0.071105957
-0.071411133
-0.071411133
-0.071716309
-0.072021484
-0.072021484
-0.07232666
-0.072631836
-0.072631836
-0.072937012
-0.072937012
-0.072631836
-0.072021484
-0.071411133
-0.070495605
-0.069885254
-0.068969727
-0.068359375
-0.067749023
-0.067138672
-0.06652832
-0.065917969
-0.065307617
-0.064697266
-0.063781738
-0.062866211
-0.061950684
-0.060424805
-0.058898926
-0.057067871
-0.054931641
-0.052490234
-0.050048828
-0.047607422
-0.04486084
-0.042114258
-0.0390625
-0.036010742
-0.032653809
-0.028991699
-0.02532959
-0.02166748
-0.018310547
-0.015563965
-0.013122559
-0.011291504
-0.010070801
-0.0094604492
-0.0088500977
-0.0085449219
-0.0085449219
-0.0088500977
-0.0091552734
-0.009765625
-0.010375977
-0.010681152
-0.010986328
-0.010986328
-0.010681152
-0.009765625
-0.0085449219
-0.007019043
-0.0051879883
-0.0030517578
-0.00061035156
0.0015258789
0.0039672852
0.0064086914
0.0088500977
0.011291504
0.01373291
0.016174316
0.018615723
0.020751953
0.022888184
0.02532959
0.027770996
0.029907227
0.031738281
0.033569336
0.035400391
0.03692627
0.038452148
0.039672852
0.04119873
0.042114258
0.043029785
0.043640137
0.043640137
0.043640137
0.043029785
0.042114258
0.040893555
0.038757324
0.036315918
0.03326416
0.029907227
0.026245117
0.021972656
0.017700195
0.012817383
0.0073242188
0.0015258789
-0.0048828125
-0.01159668
-0.018615723
-0.025634766
-0.032958984
-0.040283203
-0.047607422
-0.054626465
-0.061035156
-0.067443848
-0.072937012
-0.078430176
-0.083007812
-0.087280273
-0.090942383
-0.093688965
-0.096130371
-0.097961426
-0.099487305
-0.10040283
-0.10101318
-0.10131836
-0.10101318
-0.10070801
-0.09979248
-0.098876953
-0.09765625
-0.096435547
-0.09552002
-0.094299316
-0.093383789
-0.092468262
-0.091247559
-0.090332031
-0.089416504
-0.088500977
-0.087890625
-0.087585449
-0.087280273
-0.087280273
-0.087280273
-0.087280273
-0.087585449
-0.087890625
-0.088500977
-0.088806152
-0.089416504
-0.08972168
-0.090332031
-0.090637207
-0.090637207
-0.090637207
-0.090637207
-0.090637207
-0.090637207
-0.090637207
-0.090332031
-0.090332031
-0.090332031
-0.090332031
-0.090637207
-0.091247559
-0.092163086
-0.093383789
-0.095214844
-0.097351074
-0.10040283
-0.10375977
-0.10742188
-0.11138916
-0.11505127
-0.11810303
-0.12023926
-0.12115479
-0.11993408
-0.11688232
-0.11169434
-0.10345459
-0.09185791
-0.077209473
-0.05859375
-0.036010742
-0.0091552734
0.021972656
0.057678223
0.097961426
0.14221191
0.19012451
0.24139404
0.29510498
0.35095215
0.40802002
0.46539307
0.52276611
0.57922363
0.63446045
0.68817139
0.73944092
0.78826904
0.83435059
0.8770752
0.9161377
0.95123291
0.98175049
1.0073853
1.0275269
1.0421753
1.050415
1.0516357
1.0458374
1.0324097
1.0110474
0.98236084
0.94604492
0.90301514
0.85296631
0.79650879
0.73455811
0.66772461
0.59753418
0.52490234
0.45135498
0.37811279
0.30639648
0.23773193
0.17303467
0.11322021
0.059204102
0.011901855
-0.028686523
-0.062255859
-0.089416504
-0.11016846
-0.12542725
-0.13549805
-0.14160156
-0.14465332
-0.14526367
-0.14434814
-0.14221191
-0.13946533
-0.13641357
-0.13336182
-0.13061523
-0.12817383
-0.12695312
-0.1260376
-0.1260376
-0.12664795
-0.12756348
-0.12878418
-0.13000488
-0.13092041
-0.13214111
-0.13305664
-0.13366699
-0.13427734
-0.1348877
-0.13519287
-0.13580322
-0.1361084
-0.13702393
-0.13763428
-0.1385498
-0.13977051
-0.14099121
-0.14221191
-0.14373779
-0.14556885
-0.1473999
-0.14923096
-0.15106201
-0.15258789
-0.15380859
-0.15472412
-0.15533447
-0.15594482
-0.15625
-0.15625
-0.15594482
-0.1550293
-0.15411377
-0.15289307
-0.15167236
-0.15045166
-0.14923096
-0.14770508
-0.1461792
-0.14465332
-0.14282227
-0.14099121
-0.13916016
-0.13763428
-0.13641357
-0.13519287
-0.13458252
-0.13427734
-0.13427734
-0.13427734
-0.13427734
-0.13458252
-0.1348877
-0.13549805
-0.1361084
-0.1373291
-0.13824463
-0.13946533
-0.14068604
-0.14160156
-0.14251709
-0.14343262
-0.14373779
-0.14373779
-0.14343262
-0.14282227
-0.14221191
-0.14129639
-0.14038086
-0.13946533
-0.1385498
-0.13793945
-0.1373291
-0.13702393
-0.13702393
-0.13702393
-0.1373291
-0.13763428
-0.13824463
-0.1385498
-0.13916016
-0.13977051
-0.14038086
-0.14099121
-0.14160156
-0.14160156
-0.14160156
-0.14099121
-0.14038086
-0.13946533
-0.13824463
-0.13671875
-0.13458252
-0.13244629
-0.13031006
-0.12817383
-0.12634277
-0.12451172
-0.12298584
-0.12176514
-0.12084961
-0.11993408
-0.11901855
-0.11871338
-0.1184082
-0.11810303
-0.1184082
-0.1184082
-0.11901855
-0.11932373
-0.11993408
-0.12023926
-0.12054443
-0.12084961
-0.12054443
-0.12023926
-0.11962891
-0.1184082
-0.11688232
-0.11505127
-0.11322021
-0.11108398
-0.10864258
-0.105896
-0.10314941
-0.10009766
-0.097045898
-0.093994141
-0.091247559
-0.088500977
-0.085754395
-0.082702637
-0.08026123
-0.077514648
-0.075378418
-0.073852539
-0.07232666
-0.070800781
-0.069580078
-0.068664551
-0.067443848
-0.066223145
-0.065002441
-0.063476562
-0.062255859
-0.06072998
-0.058898926
-0.057067871
-0.054626465
-0.052185059
-0.049438477
-0.046691895
-0.043945312
-0.040893555
-0.037536621
-0.034484863
-0.030822754
-0.027160645
-0.023498535
-0.020141602
-0.017089844
-0.014343262
-0.012207031
-0.010375977
-0.0085449219
-0.0067138672
-0.0045776367
-0.002746582
-0.0012207031
0.00030517578
0.0018310547
0.0030517578
0.0039672852
0.0048828125
0.0054931641
0.0061035156
0.0067138672
0.0073242188
0.0076293945
0.0079345703
0.0079345703
0.0082397461
0.0085449219
0.0088500977
0.0091552734
0.0094604492
0.0094604492
0.009765625
0.009765625
0.010070801
0.010070801
0.010375977
0.010070801
0.010070801
0.010070801
0.010070801
0.009765625
0.0091552734
0.0088500977
0.0079345703
0.0067138672
0.0051879883
0.0033569336
0.0012207031
-0.00091552734
-0.0030517578
-0.0054931641
-0.0082397461
-0.010986328
-0.01373291
-0.016784668
-0.020141602
-0.022888184
-0.025939941
-0.028686523
-0.03112793
-0.033874512
-0.036315918
-0.038757324
-0.04119873
-0.043334961
-0.04486084
-0.046081543
-0.047302246
-0.048217773
-0.049133301
-0.050354004
-0.050964355
-0.051879883
-0.052185059
-0.05279541
-0.053100586
-0.053100586
-0.053405762
-0.053405762
-0.053710938
-0.054016113
-0.054626465
-0.055236816
-0.055847168
-0.056762695
-0.057373047
-0.057983398
-0.05859375
-0.059204102
-0.059814453
-0.06072998
-0.061645508
-0.062866211
-0.063781738
-0.06439209
-0.065307617
-0.065917969
-0.066833496
-0.067443848
-0.068054199
-0.068664551
-0.068664551
-0.068664551
-0.068054199
-0.067138672
-0.065917969
-0.065002441
-0.063781738
-0.062866211
-0.062255859
-0.061645508
-0.061035156
-0.060424805
-0.059814453
-0.059204102
-0.05859375
-0.058288574
-0.058288574
-0.058288574
-0.05859375
-0.058898926
-0.059509277
-0.060424805
-0.061035156
-0.061645508
-0.062255859
-0.062561035
-0.062866211
-0.062866211
-0.063171387
-0.063476562
-0.063476562
-0.063476562
-0.063781738
-0.064086914
-0.06439209
-0.065002441
-0.065612793
-0.066223145
-0.066833496
-0.067138672
-0.067443848
-0.067749023
-0.068054199
-0.068054199
-0.068054199
-0.067749023
-0.067138672
-0.06652832
-0.065917969
-0.065307617
-0.06439209
-0.063781738
-0.062866211
-0.062255859
-0.061645508
-0.061035156
-0.060424805
-0.059814453
-0.059509277
-0.059204102
-0.059204102
-0.059204102
-0.059204102
-0.059814453
-0.060424805
-0.061035156
-0.061950684
-0.062561035
-0.063171387
-0.063476562
-0.063781738
-0.063781738
-0.063781738
-0.063781738
-0.063781738
-0.063781738
-0.063781738
-0.063476562
-0.063476562
-0.063171387
-0.062866211
-0.061950684
-0.06072998
-0.059814453
-0.05859375
-0.057373047
-0.05645752
-0.055847168
-0.054931641
-0.054321289
-0.053710938
-0.05279541
-0.052185059
-0.051879883
-0.051574707
-0.051269531
-0.050964355
-0.050964355
-0.051269531
-0.051269531
-0.051574707
-0.051879883
-0.052490234
-0.05279541
-0.053405762
-0.054321289
-0.054931641
-0.055847168
-0.05645752
-0.057067871
-0.057678223
-0.058288574
-0.058898926
-0.059204102
-0.059509277
-0.059509277
-0.059509277
-0.059204102
-0.058898926
-0.058288574
-0.057678223
-0.057067871
-0.05645752
-0.055541992
-0.054931641
-0.054016113
-0.053100586
-0.052490234
-0.051879883
-0.051574707
-0.051269531
-0.051269531
-0.051269531
-0.051879883
-0.052185059
-0.052490234
-0.053100586
-0.053710938
-0.054321289
-0.055236816
-0.055847168
-0.056152344
-0.056762695
-0.057373047
-0.057678223
-0.057983398
-0.05859375
-0.058898926
-0.059204102
-0.059204102
-0.059509277
-0.059509277
-0.059814453
-0.059814453
-0.059814453
-0.059509277
-0.059204102
-0.058898926
-0.057983398
-0.057067871
-0.055847168
-0.054931641
-0.054016113
-0.053100586
-0.052185059
-0.051574707
-0.050964355
-0.05065918
-0.05065918
-0.050964355
-0.051574707
-0.052490234
-0.053710938
-0.055236816
-0.056762695
-0.058288574
-0.060119629
-0.061950684
-0.063781738
-0.065002441
-0.066223145
-0.066833496
-0.067138672
-0.067138672
-0.066833496
-0.066223145
-0.065612793
-0.064697266
-0.063781738
-0.062561035
-0.061645508
-0.060424805
-0.059509277
-0.058898926
-0.058288574
-0.057983398
-0.057983398
-0.058288574
-0.058898926
-0.059509277
-0.060424805
-0.061035156
-0.061645508
-0.062561035
-0.063171387
-0.063781738
-0.064086914
-0.06439209
-0.064697266
-0.065002441
-0.065307617
-0.065612793
-0.065612793
-0.065917969
-0.066223145
-0.066833496
-0.066833496
-0.067138672
-0.067443848
-0.067749023
-0.068054199
-0.068664551
-0.068969727
-0.069274902
-0.069274902
-0.069274902
-0.068969727
-0.068969727
-0.068969727
-0.068969727
-0.068969727
-0.068969727
-0.068969727
-0.068969727
-0.068969727
-0.069274902
-0.069274902
-0.069580078
-0.07019043
-0.070495605
-0.071105957
-0.071716309
-0.072021484
-0.07232666
-0.072631836
-0.072631836
-0.072937012
-0.072937012
-0.072937012
-0.072937012
-0.072937012
-0.072631836
-0.07232666
-0.072021484
-0.072021484
-0.071716309
-0.071716309
-0.072021484
-0.072021484
-0.072021484
-0.072021484
-0.071411133
-0.071105957
-0.070800781
-0.070800781
-0.071105957
-0.071105957
-0.071411133
-0.071716309
-0.071716309
-0.071411133
-0.070800781
-0.069885254
-0.068969727
-0.068054199
-0.067443848
-0.067138672
-0.067138672
-0.067443848
-0.067749023
-0.068359375
-0.068969727
-0.069580078
-0.070495605
-0.071411133
-0.07232666
-0.073242188
-0.074157715
-0.074768066
-0.075378418
-0.07598877
-0.076293945
-0.07598877
-0.075073242
-0.073852539
-0.071716309
-0.068664551
-0.065307617
-0.061645508
-0.057373047
-0.053100586
-0.048522949
-0.043640137
-0.038757324
-0.033874512
-0.029296875
-0.025024414
-0.021362305
-0.018310547
-0.015869141
-0.014038086
-0.012512207
-0.011291504
-0.010986328
-0.010986328
-0.01159668
-0.012817383
-0.014648438
-0.016784668
-0.018920898
-0.020751953
-0.022277832
-0.023498535
-0.023803711
-0.023498535
-0.022888184
-0.021362305
-0.01953125
-0.017089844
-0.014038086
-0.010681152
-0.007019043
-0.0030517578
0.0012207031
0.0051879883
0.0091552734
0.012817383
0.016479492
0.01953125
0.021972656
0.024414062
0.025939941
0.027160645
0.027770996
0.028381348
0.028381348
0.028381348
0.028381348
0.028381348
0.028076172
0.027770996
0.02746582
0.027160645
0.026550293
0.026245117
0.025634766
0.024719238
0.023803711
0.022583008
0.021057129
0.019226074
0.016784668
0.014038086
0.010375977
0.0061035156
0.0012207031
-0.0039672852
-0.0094604492
-0.014953613
-0.021057129
-0.02746582
-0.034179688
-0.04119873
-0.048217773
-0.055236816
-0.062255859
-0.069274902
-0.07598877
-0.082092285
-0.087585449
-0.092468262
-0.096740723
-0.10101318
-0.10437012
-0.10742188
-0.11016846
-0.11230469
-0.11383057
-0.11474609
-0.11566162
-0.1159668
-0.1159668
-0.1159668
-0.11535645
-0.11474609
-0.11352539
-0.11230469
-0.11108398
-0.10986328
-0.10864258
-0.10742188
-0.105896
-0.10467529
-0.10284424
-0.10131836
-0.10009766
-0.099182129
-0.098571777
-0.098571777
-0.098876953
-0.099182129
-0.10009766
-0.10070801
-0.10162354
-0.10253906
-0.10345459
-0.10406494
-0.10467529
-0.10528564
-0.105896
-0.10620117
-0.10620117
-0.10620117
-0.10650635
-0.10650635
-0.10650635
-0.10681152
-0.1071167
-0.10742188
-0.10803223
-0.10864258
-0.10986328
-0.11169434
-0.11413574
-0.11688232
-0.12023926
-0.12390137
-0.12756348
-0.13092041
-0.13397217
-0.1361084
-0.13641357
-0.1348877
-0.13153076
-0.12573242
-0.1171875
-0.10620117
-0.09185791
-0.074157715
-0.053405762
-0.028991699
-0.00091552734
0.030517578
0.066223145
0.10559082
0.14831543
0.19439697
0.2432251
0.29418945
0.34667969
0.40039062
0.45471191
0.5090332
0.56243896
0.6149292
0.66619873
0.71594238
0.76385498
0.809021
0.85144043
0.89050293
0.92529297
0.95581055
0.98175049
1.0018921
1.015625
1.0223389
1.0217285
1.0128784
0.99639893
0.97137451
0.93902588
0.89904785
0.85205078
0.7989502
0.74005127
0.67626953
0.60821533
0.53741455
0.46447754
0.39154053
0.31951904
0.24993896
0.184021
0.12268066
0.066833496
0.017089844
-0.026550293
-0.063476562
-0.093994141
-0.11871338
-0.1373291
-0.15106201
-0.15991211
-0.1651001
-0.16723633
-0.16662598
-0.16479492
-0.16204834
-0.15899658
-0.15563965
-0.15289307
-0.15014648
-0.14770508
-0.14587402
-0.14465332
-0.14404297
-0.14373779
-0.14404297
-0.14465332
-0.14587402
-0.14709473
-0.14831543
-0.14984131
-0.15136719
-0.15258789
-0.15380859
-0.15472412
-0.15563965
-0.15594482
-0.15655518
-0.15686035
-0.15716553
-0.1574707
-0.15777588
-0.15838623
-0.15930176
-0.16021729
-0.16143799
-0.16296387
-0.16418457
-0.16571045
-0.16693115
-0.16784668
-0.16845703
-0.16906738
-0.16967773
-0.16998291
-0.17059326
-0.17089844
-0.17089844
-0.17120361
-0.17120361
-0.17089844
-0.17059326
-0.16998291
-0.16937256
-0.16906738
-0.16845703
-0.16784668
-0.16723633
-0.16662598
-0.16601562
-0.16571045
-0.16540527
-0.16540527
-0.1651001
-0.16479492
-0.16479492
-0.16448975
-0.16418457
-0.16387939
-0.16357422
-0.16326904
-0.16265869
-0.16235352
-0.16204834
-0.16204834
-0.16204834
-0.16235352
-0.16265869
-0.16296387
-0.16296387
-0.16296387
-0.16296387
-0.16296387
-0.16296387
-0.16296387
-0.16265869
-0.16265869
-0.16204834
-0.16143799
-0.16082764
-0.15991211
-0.15869141
-0.15777588
-0.15655518
-0.15563965
-0.15472412
-0.15411377
-0.15319824
-0.15258789
-0.15167236
-0.15136719
-0.15106201
-0.15075684
-0.15106201
-0.15136719
-0.15197754
-0.15258789
-0.15319824
-0.15380859
-0.15472412
-0.1550293
-0.15563965
-0.15625
-0.15655518
-0.15686035
-0.15716553
-0.1574707
-0.1574707
-0.15716553
-0.15655518
-0.15594482
-0.15533447
-0.15441895
-0.15380859
-0.15289307
-0.15228271
-0.15136719
-0.15075684
-0.14984131
-0.14892578
-0.14801025
-0.14678955
-0.14587402
-0.1449585
-0.14404297
-0.14282227
-0.14190674
-0.14068604
-0.13946533
-0.13824463
-0.13671875
-0.13519287
-0.13366699
-0.13244629
-0.13092041
-0.13000488
-0.12878418
-0.12786865
-0.12664795
-0.12542725
-0.12390137
-0.12268066
-0.12176514
-0.12054443
-0.11932373
-0.11779785
-0.1159668
-0.11352539
-0.11077881
-0.10803223
-0.10498047
-0.10223389
-0.099487305
-0.097045898
-0.094604492
-0.092163086
-0.089416504
-0.086975098
-0.084533691
-0.082397461
-0.08026123
-0.078735352
-0.077209473
-0.075683594
-0.074462891
-0.072937012
-0.071105957
-0.069274902
-0.067138672
-0.065002441
-0.062561035
-0.059814453
-0.057067871
-0.054016113
-0.050964355
-0.047912598
-0.044555664
-0.041503906
-0.038757324
-0.036315918
-0.033874512
-0.031738281
-0.030212402
-0.028686523
-0.027770996
-0.027160645
-0.026550293
-0.026245117
-0.025939941
-0.025939941
-0.025939941
-0.026245117
-0.026245117
-0.026245117
-0.026245117
-0.026245117
-0.025939941
-0.025939941
-0.025939941
-0.025939941
-0.025939941
-0.026245117
-0.026245117
-0.026550293
-0.027160645
-0.027770996
-0.028991699
-0.030212402
-0.031433105
-0.032958984
-0.035095215
-0.037231445
-0.039672852
-0.042114258
-0.044555664
-0.047302246
-0.049743652
-0.052185059
-0.054626465
-0.057067871
-0.059204102
-0.061645508
-0.063781738
-0.065612793
-0.067443848
-0.068969727
-0.07019043
-0.071411133
-0.072021484
-0.072937012
-0.073547363
-0.074462891
-0.075683594
-0.076599121
-0.077209473
-0.078125
-0.078735352
-0.079650879
-0.08026123
-0.081176758
-0.082397461
-0.08392334
-0.085449219
-0.087280273
-0.088806152
-0.090332031
-0.09185791
-0.093078613
-0.094604492
-0.095825195
-0.096740723
-0.09765625
-0.098571777
-0.099487305
-0.10009766
-0.10101318
-0.10131836
-0.10162354
-0.10162354
-0.10162354
-0.10131836
-0.10131836
-0.10131836
-0.10131836
-0.10131836
-0.10131836
-0.10131836
-0.10131836
-0.10131836
-0.10131836
-0.10131836
-0.10162354
-0.10192871
-0.10223389
-0.10284424
-0.10345459
-0.10375977
-0.10406494
-0.10406494
-0.10406494
-0.10437012
-0.10437012
-0.10437012
-0.10467529
-0.10467529
-0.10467529
-0.10437012
-0.10406494
-0.10345459
-0.10314941
-0.10253906
-0.10162354
-0.10070801
-0.09979248
-0.098876953
-0.097961426
-0.097351074
-0.096435547
-0.095825195
-0.094909668
-0.093994141
-0.093078613
-0.092773438
-0.092163086
-0.09185791
-0.09185791
-0.09185791
-0.09185791
-0.09185791
-0.09185791
-0.092163086
-0.092163086
-0.092468262
-0.092773438
-0.093078613
-0.093688965
-0.094299316
-0.095214844
-0.095825195
-0.096740723
-0.097351074
-0.098266602
-0.098876953
-0.099487305
-0.09979248
-0.10009766
-0.10040283
-0.10070801
-0.10070801
-0.10070801
-0.10040283
-0.10009766
-0.09979248
-0.099487305
-0.098876953
-0.097961426
-0.097045898
-0.096130371
-0.095214844
-0.094604492
-0.093688965
-0.093078613
-0.092468262
-0.09185791
-0.091552734
-0.090942383
-0.090637207
-0.090026855
-0.089416504
-0.088806152
-0.088195801
-0.087585449
-0.087280273
-0.086669922
-0.086364746
-0.086364746
-0.086364746
-0.08605957
-0.08605957
-0.08605957
-0.08605957
-0.086364746
-0.086669922
-0.086975098
-0.087890625
-0.088806152
-0.08972168
-0.090637207
-0.091552734
-0.092468262
-0.093383789
-0.093994141
-0.094604492
-0.095214844
-0.095825195
-0.096130371
-0.096435547
-0.096740723
-0.096435547
-0.096130371
-0.095825195
-0.095214844
-0.094604492
-0.093688965
-0.092773438
-0.09185791
-0.090637207
-0.089416504
-0.088195801
-0.086975098
-0.08605957
-0.085754395
-0.085449219
-0.085449219
-0.085449219
-0.085449219
-0.085449219
-0.085449219
-0.085144043
-0.084838867
-0.084838867
-0.085144043
-0.085449219
-0.085754395
-0.086364746
-0.086669922
-0.086975098
-0.087280273
-0.087280273
-0.087280273
-0.087280273
-0.087280273
-0.087585449
-0.087585449
-0.087890625
-0.087890625
-0.088195801
-0.088195801
-0.088195801
-0.088500977
-0.088195801
-0.087890625
-0.087585449
-0.086669922
-0.08605957
-0.085144043
-0.084533691
-0.08392334
-0.083312988
-0.083312988
-0.083618164
-0.08392334
-0.084838867
-0.085449219
-0.086669922
-0.087585449
-0.089111328
-0.090332031
-0.092163086
-0.093688965
-0.095214844
-0.097045898
-0.098266602
-0.09979248
-0.10101318
-0.10192871
-0.10284424
-0.10345459
-0.10375977
-0.10375977
-0.10375977
-0.10345459
-0.10314941
-0.10284424
-0.10253906
-0.10253906
-0.10223389
-0.10192871
-0.10162354
-0.10101318
-0.10040283
-0.09979248
-0.098876953
-0.09765625
-0.096435547
-0.095214844
-0.094299316
-0.093078613
-0.092163086
-0.091247559
-0.090637207
-0.090332031
-0.090026855
-0.090332031
-0.090637207
-0.091247559
-0.09185791
-0.092773438
-0.093994141
-0.094909668
-0.095825195
-0.096740723
-0.097961426
-0.098876953
-0.099487305
-0.09979248
-0.099487305
-0.098876953
-0.09765625
-0.09552002
-0.093383789
-0.090332031
-0.086975098
-0.083312988
-0.079040527
-0.074462891
-0.07019043
-0.065307617
-0.06072998
-0.05645752
-0.052185059
-0.048522949
-0.045166016
-0.043029785
-0.04119873
-0.039978027
-0.039672852
-0.039367676
-0.039672852
-0.039978027
-0.040283203
-0.04119873
-0.041809082
-0.042724609
-0.043334961
-0.043640137
-0.043334961
-0.043029785
-0.041809082
-0.040283203
-0.037841797
-0.035095215
-0.032348633
-0.029602051
-0.026550293
-0.023803711
-0.021057129
-0.018920898
-0.016784668
-0.014953613
-0.013122559
-0.01159668
-0.010070801
-0.0088500977
-0.0076293945
-0.0067138672
-0.0057983398
-0.0045776367
-0.0030517578
-0.0018310547
-0.00030517578
0.0015258789
0.0033569336
0.0051879883
0.007019043
0.0085449219
0.010070801
0.011291504
0.012207031
0.012817383
0.013122559
0.012512207
0.01159668
0.010070801
0.0079345703
0.0051879883
0.0018310547
-0.0024414062
-0.007019043
-0.012207031
-0.017700195
-0.023803711
-0.030212402
-0.036621094
-0.043029785
-0.049438477
-0.056152344
-0.062561035
-0.069274902
-0.075683594
-0.081787109
-0.087585449
-0.093078613
-0.097961426
-0.10253906
-0.10681152
-0.11108398
-0.11474609
-0.11810303
-0.12115479
-0.12390137
-0.12634277
-0.128479
-0.13061523
-0.13214111
-0.13366699
-0.1348877
-0.13641357
-0.1373291
-0.13824463
-0.13885498
-0.13916016
-0.13916016
-0.1385498
-0.13824463
-0.13763428
-0.13671875
-0.13580322
-0.1348877
-0.13397217
-0.13275146
-0.13153076
-0.13031006
-0.12878418
-0.1272583
-0.12573242
-0.12481689
-0.12420654
-0.12390137
-0.12390137
-0.12420654
-0.12451172
-0.12481689
-0.12542725
-0.1260376
-0.12695312
-0.12786865
-0.12939453
-0.13092041
-0.13244629
-0.13366699
-0.13458252
-0.13519287
-0.13549805
-0.13549805
-0.13549805
-0.13519287
-0.13519287
-0.1348877
-0.1348877
-0.13519287
-0.13580322
-0.13671875
-0.13824463
-0.13977051
-0.14160156
-0.14312744
-0.14434814
-0.14404297
-0.14282227
-0.13977051
-0.13519287
-0.12817383
-0.11901855
-0.10650635
-0.090942383
-0.071716309
-0.048522949
-0.021057129
0.010375977
0.045776367
0.084838867
0.1272583
0.17303467
0.22094727
0.27160645
0.3237915
0.37719727
0.43121338
0.48522949
0.53863525
0.59051514
0.64056396
0.68847656
0.73364258
0.77606201
0.81542969
0.85144043
0.88378906
0.91247559
0.9362793
0.9552002
0.96801758
0.97412109
0.97290039
0.96435547
0.94787598
0.92437744
0.89355469
0.85601807
0.81237793
0.76263428
0.70800781
0.64819336
0.5847168
0.51849365
0.45043945
0.3817749
0.31402588
0.24780273
0.18463135
0.12512207
0.070495605
0.021362305
-0.022583008
-0.060424805
-0.092468262
-0.11901855
-0.14007568
-0.15625
-0.16845703
-0.17669678
-0.18188477
-0.18432617
-0.18493652
-0.18371582
-0.18127441
-0.17822266
-0.17486572
-0.17089844
-0.1675415
-0.16418457
-0.16113281
-0.15838623
-0.15655518
-0.1550293
-0.15441895
-0.15441895
-0.1550293
-0.15594482
-0.15777588
-0.15960693
-0.16174316
-0.16387939
-0.16601562
-0.16784668
-0.16967773
-0.17150879
-0.17303467
-0.17486572
-0.17608643
-0.17700195
-0.1776123
-0.17822266
-0.17852783
-0.17883301
-0.17913818
-0.17944336
-0.18005371
-0.18035889
-0.18035889
-0.18066406
-0.18096924
-0.18096924
-0.18096924
-0.18096924
-0.18127441
-0.18157959
-0.18188477
-0.18188477
-0.18188477
-0.18157959
-0.18066406
-0.17974854
-0.17883301
-0.17791748
-0.17730713
-0.17669678
-0.1763916
-0.17608643
-0.17578125
-0.17547607
-0.1751709
-0.17486572
-0.17456055
-0.17456055
-0.17456055
-0.17486572
-0.1751709
-0.17547607
-0.17578125
-0.17578125
-0.17578125
-0.17578125
-0.17578125
-0.17578125
-0.17547607
-0.17547607
-0.17578125
-0.17578125
-0.17578125
-0.17547607
-0.1751709
-0.1751709
-0.1751709
-0.17547607
-0.17547607
-0.17578125
-0.17608643
-0.17608643
-0.1763916
-0.1763916
-0.17669678
-0.17669678
-0.17669678
-0.17669678
-0.17669678
-0.1763916
-0.17608643
-0.17578125
-0.17578125
-0.17547607
-0.17547607
-0.1751709
-0.17486572
-0.17456055
-0.1739502
-0.17333984
-0.17272949
-0.17181396
-0.17120361
-0.17028809
-0.16937256
-0.16845703
-0.16723633
-0.16662598
-0.16571045
-0.16540527
-0.16479492
-0.16479492
-0.16448975
-0.16479492
-0.16479492
-0.16479492
-0.1651001
-0.16540527
-0.16571045
-0.16571045
-0.16571045
-0.16571045
-0.16571045
-0.1651001
-0.16448975
-0.16357422
-0.16265869
-0.16143799
-0.15991211
-0.15869141
-0.15716553
-0.15533447
-0.15380859
-0.15258789
-0.15136719
-0.15014648
-0.14892578
-0.14801025
-0.14709473
-0.1461792
-0.14526367
-0.14465332
-0.14404297
-0.14312744
-0.14251709
-0.14129639
-0.14038086
-0.13916016
-0.13793945
-0.13671875
-0.13549805
-0.13366699
-0.13214111
-0.13000488
-0.12786865
-0.12573242
-0.12329102
-0.12084961
-0.1184082
-0.11566162
-0.11291504
-0.11047363
-0.10772705
-0.10528564
-0.10314941
-0.10101318
-0.098876953
-0.096740723
-0.094909668
-0.093078613
-0.091247559
-0.089416504
-0.087585449
-0.086364746
-0.085144043
-0.08392334
-0.082702637
-0.081787109
-0.080566406
-0.079040527
-0.077819824
-0.076599121
-0.075378418
-0.074462891
-0.073242188
-0.07232666
-0.071105957
-0.069885254
-0.068664551
-0.067138672
-0.065917969
-0.064697266
-0.063171387
-0.061950684
-0.06072998
-0.059509277
-0.058288574
-0.057067871
-0.055847168
-0.054626465
-0.053405762
-0.05279541
-0.052490234
-0.05279541
-0.053405762
-0.054626465
-0.055847168
-0.057373047
-0.05859375
-0.060119629
-0.061340332
-0.062561035
-0.063781738
-0.065307617
-0.06652832
-0.067749023
-0.068969727
-0.07019043
-0.071105957
-0.072021484
-0.072631836
-0.073242188
-0.073242188
-0.073547363
-0.073852539
-0.074157715
-0.075073242
-0.076293945
-0.077514648
-0.079040527
-0.080871582
-0.082702637
-0.084533691
-0.086364746
-0.087890625
-0.08972168
-0.091247559
-0.092468262
-0.093688965
-0.094909668
-0.096130371
-0.097045898
-0.097961426
-0.098876953
-0.099487305
-0.099487305
-0.099487305
-0.099487305
-0.099487305
-0.09979248
-0.10009766
-0.10070801
-0.10131836
-0.10192871
-0.10223389
-0.10284424
-0.10345459
-0.10406494
-0.10467529
-0.10528564
-0.10559082
-0.10620117
-0.10620117
-0.10650635
-0.10620117
-0.10620117
-0.105896
-0.10528564
-0.10498047
-0.10467529
-0.10467529
-0.10437012
-0.10437012
-0.10437012
-0.10437012
-0.10437012
-0.10437012
-0.10467529
-0.10498047
-0.105896
-0.10650635
-0.10742188
-0.1083374
-0.10894775
-0.10955811
-0.10986328
-0.11016846
-0.11016846
-0.10955811
-0.10894775
-0.10864258
-0.1083374
-0.10803223
-0.10803223
-0.10772705
-0.10772705
-0.10742188
-0.1071167
-0.10681152
-0.10620117
-0.105896
-0.105896
-0.10620117
-0.10650635
-0.10681152
-0.10742188
-0.10803223
-0.1083374
-0.10894775
-0.10955811
-0.10955811
-0.10986328
-0.10986328
-0.10955811
-0.10955811
-0.10955811
-0.10925293
-0.10925293
-0.10894775
-0.10894775
-0.10864258
-0.1083374
-0.10803223
-0.10742188
-0.1071167
-0.10650635
-0.10650635
-0.10650635
-0.10650635
-0.10681152
-0.10681152
-0.10681152
-0.10650635
-0.105896
-0.10559082
-0.10528564
-0.10467529
-0.10437012
-0.10406494
-0.10375977
-0.10314941
-0.10253906
-0.10131836
-0.10009766
-0.098876953
-0.09765625
-0.096435547
-0.095825195
-0.09552002
-0.09552002
-0.095825195
-0.096130371
-0.096435547
-0.097045898
-0.09765625
-0.097961426
-0.098571777
-0.099182129
-0.09979248
-0.10040283
-0.10101318
-0.10162354
-0.10192871
-0.10253906
-0.10314941
-0.10314941
-0.10284424
-0.10253906
-0.10192871
-0.10131836
-0.10101318
-0.10070801
-0.10070801
-0.10070801
-0.10070801
-0.10040283
-0.09979248
-0.099182129
-0.098266602
-0.097351074
-0.096740723
-0.095825195
-0.095214844
-0.094299316
-0.093688965
-0.092773438
-0.092163086
-0.091552734
-0.091247559
-0.091247559
-0.091247559
-0.091552734
-0.092468262
-0.093078613
-0.093994141
-0.095214844
-0.096130371
-0.097351074
-0.098266602
-0.098876953
-0.099487305
-0.09979248
-0.09979248
-0.09979248
-0.099487305
-0.098876953
-0.098266602
-0.09765625
-0.097045898
-0.096435547
-0.096130371
-0.095825195
-0.09552002
-0.095214844
-0.09552002
-0.095825195
-0.096435547
-0.097351074
-0.098266602
-0.099487305
-0.10040283
-0.10162354
-0.10284424
-0.10375977
-0.10406494
-0.10437012
-0.10437012
-0.10437012
-0.10406494
-0.10375977
-0.10284424
-0.10192871
-0.10070801
-0.099487305
-0.098266602
-0.097351074
-0.096130371
-0.09552002
-0.094909668
-0.094299316
-0.094299316
-0.094299316
-0.094604492
-0.095214844
-0.096130371
-0.096740723
-0.097351074
-0.098266602
-0.098876953
-0.09979248
-0.10040283
-0.10131836
-0.10192871
-0.10223389
-0.10284424
-0.10314941
-0.10375977
-0.10406494
-0.10467529
-0.10528564
-0.105896
-0.10620117
-0.10650635
-0.10650635
-0.10681152
-0.1071167
-0.10742188
-0.10772705
-0.1083374
-0.10864258
-0.10894775
-0.10894775
-0.10894775
-0.10894775
-0.10864258
-0.10803223
-0.10742188
-0.10681152
-0.105896
-0.10559082
-0.10498047
-0.10467529
-0.10437012
-0.10406494
-0.10375977
-0.10375977
-0.10345459
-0.10345459
-0.10314941
-0.10314941
-0.10314941
-0.10345459
-0.10406494
-0.10467529
-0.10528564
-0.10620117
-0.1071167
-0.1083374
-0.10955811
-0.11077881
-0.11199951
-0.11322021
-0.11413574
-0.11535645
-0.11627197
-0.11688232
-0.11749268
-0.11779785
-0.11749268
-0.11688232
-0.1159668
-0.11474609
-0.11352539
-0.11230469
-0.11108398
-0.10986328
-0.10864258
-0.10742188
-0.10620117
-0.10467529
-0.10345459
-0.10223389
-0.10101318
-0.10009766
-0.099487305
-0.098876953
-0.098266602
-0.09765625
-0.096740723
-0.09552002
-0.093994141
-0.09185791
-0.08972168
-0.087280273
-0.084533691
-0.081176758
-0.077819824
-0.074157715
-0.070495605
-0.066833496
-0.063476562
-0.060119629
-0.057067871
-0.054016113
-0.051879883
-0.049743652
-0.048217773
-0.047302246
-0.046386719
-0.045776367
-0.045166016
-0.04486084
-0.044250488
-0.043945312
-0.043640137
-0.043029785
-0.042419434
-0.04119873
-0.039978027
-0.038452148
-0.036315918
-0.034179688
-0.031738281
-0.029296875
-0.027160645
-0.025024414
-0.023498535
-0.021972656
-0.020751953
-0.01953125
-0.018310547
-0.017089844
-0.016174316
-0.015258789
-0.014648438
-0.014038086
-0.01373291
-0.013427734
-0.012817383
-0.012512207
-0.012207031
-0.01159668
-0.011291504
-0.010986328
-0.010681152
-0.010070801
-0.0094604492
-0.0091552734
-0.0088500977
-0.0088500977
-0.0091552734
-0.009765625
-0.010681152
-0.011901855
-0.013122559
-0.014648438
-0.016784668
-0.019226074
-0.022277832
-0.025634766
-0.029907227
-0.034790039
-0.039978027
-0.045776367
-0.051879883
-0.058898926
-0.066223145
-0.073547363
-0.080871582
-0.087890625
-0.094909668
-0.10131836
-0.10803223
-0.11413574
-0.11993408
-0.12512207
-0.12969971
-0.13366699
-0.13702393
-0.13977051
-0.14221191
-0.14404297
-0.14587402
-0.14709473
-0.14831543
-0.14953613
-0.15014648
-0.15075684
-0.15106201
-0.15136719
-0.15106201
-0.15045166
-0.14953613
-0.14862061
-0.1473999
-0.1461792
-0.1449585
-0.14343262
-0.14190674
-0.14068604
-0.13946533
-0.13824463
-0.13763428
-0.13702393
-0.13671875
-0.13671875
-0.13702393
-0.13763428
-0.1385498
-0.13916016
-0.14007568
-0.14129639
-0.14221191
-0.14343262
-0.14465332
-0.14556885
-0.14678955
-0.14770508
-0.14862061
-0.14953613
-0.15045166
-0.15106201
-0.15197754
-0.15289307
-0.15411377
-0.15533447
-0.15686035
-0.15869141
-0.16113281
-0.16387939
-0.16693115
-0.16967773
-0.17211914
-0.17364502
-0.17364502
-0.17211914
-0.16845703
-0.16265869
-0.15441895
-0.14343262
-0.12969971
-0.11260986
-0.092163086
-0.068054199
-0.039672852
-0.0073242188
0.029907227
0.071105957
0.11627197
0.16448975
0.2154541
0.26885986
0.32409668
0.3805542
0.43762207
0.49499512
0.55206299
0.60791016
0.66253662
0.71502686
0.76538086
0.81268311
0.85662842
0.89752197
0.93414307
0.96679688
0.99456787
1.0174561
1.0342407
1.0446167
1.0482788
1.0440063
1.0317993
1.0110474
0.98205566
0.94543457
0.90118408
0.84991455
0.7925415
0.72937012
0.66131592
0.58959961
0.51513672
0.43914795
0.36346436
0.28930664
0.21789551
0.15045166
0.087585449
0.030517578
-0.020141602
-0.063781738
-0.10040283
-0.12969971
-0.15258789
-0.16937256
-0.18096924
-0.18829346
-0.19195557
-0.19287109
-0.19134521
-0.18859863
-0.18493652
-0.18096924
-0.17669678
-0.17272949
-0.16967773
-0.16693115
-0.16540527
-0.16479492
-0.1651001
-0.1663208
-0.16784668
-0.17028809
-0.17272949
-0.1751709
-0.17791748
-0.18066406
-0.18310547
-0.1852417
-0.18737793
-0.18890381
-0.19042969
-0.19165039
-0.19256592
-0.19317627
-0.19378662
-0.19378662
-0.19378662
-0.19348145
-0.19317627
-0.19256592
-0.19226074
-0.19134521
-0.19073486
-0.18981934
-0.18859863
-0.18768311
-0.1864624
-0.18554688
-0.18493652
-0.18463135
-0.18432617
-0.184021
-0.18371582
-0.18371582
-0.18371582
-0.184021
-0.18463135
-0.18554688
-0.18615723
-0.18676758
-0.18737793
-0.18768311
-0.18798828
-0.18829346
-0.18829346
-0.18798828
-0.18737793
-0.18676758
-0.18615723
-0.1852417
-0.18432617
-0.18341064
-0.18280029
-0.18188477
-0.18157959
-0.18127441
-0.18096924
-0.18096924
-0.18066406
-0.18066406
-0.18066406
-0.18096924
-0.18096924
-0.18096924
-0.18096924
-0.18096924
-0.18066406
-0.18066406
-0.18005371
-0.17974854
-0.17944336
-0.17852783
-0.17791748
-0.17700195
-0.17608643
-0.17486572
-0.17364502
-0.17242432
-0.17120361
-0.17059326
-0.16998291
-0.16937256
-0.16906738
-0.16906738
-0.16876221
-0.16845703
-0.16815186
-0.1675415
-0.16693115
-0.16662598
-0.16662598
-0.16693115
-0.16723633
-0.16723633
-0.16693115
-0.16601562
-0.1651001
-0.16387939
-0.16265869
-0.16143799
-0.15991211
-0.15838623
-0.15686035
-0.15533447
-0.15380859
-0.15197754
-0.15045166
-0.14862061
-0.14709473
-0.14556885
-0.14434814
-0.14343262
-0.14282227
-0.14221191
-0.14190674
-0.14129639
-0.14099121
-0.14038086
-0.14007568
-0.13946533
-0.13916016
-0.13824463
-0.13763428
-0.13671875
-0.13580322
-0.1348877
-0.13397217
-0.13305664
-0.13183594
-0.13031006
-0.12908936
-0.12756348
-0.1260376
-0.12451172
-0.12298584
-0.12115479
-0.11962891
-0.11749268
-0.11535645
-0.11291504
-0.11047363
-0.10772705
-0.10498047
-0.10192871
-0.098876953
-0.095214844
-0.09185791
-0.087890625
-0.084228516
-0.080871582
-0.077209473
-0.074157715
-0.070800781
-0.067749023
-0.065002441
-0.062255859
-0.059509277
-0.057067871
-0.054626465
-0.052490234
-0.05065918
-0.048828125
-0.047607422
-0.046386719
-0.045166016
-0.043945312
-0.043029785
-0.041809082
-0.040283203
-0.038452148
-0.036315918
-0.033874512
-0.031433105
-0.028991699
-0.026245117
-0.024108887
-0.02166748
-0.019226074
-0.017089844
-0.014953613
-0.013122559
-0.011291504
-0.009765625
-0.0085449219
-0.0076293945
-0.0073242188
-0.0073242188
-0.0076293945
-0.0085449219
-0.009765625
-0.010986328
-0.012817383
-0.014648438
-0.016479492
-0.018005371
-0.01953125
-0.020751953
-0.021972656
-0.023193359
-0.024108887
-0.02532959
-0.026550293
-0.027770996
-0.029602051
-0.031738281
-0.033874512
-0.036315918
-0.038757324
-0.041503906
-0.044555664
-0.047912598
-0.051574707
-0.055236816
-0.059204102
-0.063171387
-0.066833496
-0.070495605
-0.073852539
-0.076599121
-0.078735352
-0.08026123
-0.081481934
-0.082397461
-0.083007812
-0.083312988
-0.083618164
-0.083618164
-0.083312988
-0.083007812
-0.082397461
-0.082092285
-0.081787109
-0.081787109
-0.082092285
-0.082397461
-0.082702637
-0.083312988
-0.084228516
-0.085144043
-0.086364746
-0.087585449
-0.088806152
-0.090026855
-0.090637207
-0.091247559
-0.091247559
-0.091247559
-0.091247559
-0.091247559
-0.091552734
-0.091552734
-0.09185791
-0.092163086
-0.092468262
-0.092773438
-0.093383789
-0.093688965
-0.094299316
-0.094604492
-0.095214844
-0.095825195
-0.096130371
-0.096435547
-0.096740723
-0.097045898
-0.097351074
-0.09765625
-0.09765625
-0.097961426
-0.09765625
-0.097351074
-0.097351074
-0.097045898
-0.097045898
-0.097045898
-0.097045898
-0.097045898
-0.097045898
-0.097045898
-0.097351074
-0.09765625
-0.098266602
-0.098876953
-0.099182129
-0.099487305
-0.09979248
-0.09979248
-0.099487305
-0.099182129
-0.098571777
-0.09765625
-0.096435547
-0.09552002
-0.094909668
-0.093994141
-0.093078613
-0.092163086
-0.091247559
-0.090332031
-0.089416504
-0.088806152
-0.088195801
-0.087890625
-0.087585449
-0.087585449
-0.087585449
-0.087890625
-0.088500977
-0.089416504
-0.090332031
-0.091552734
-0.092773438
-0.093688965
-0.094604492
-0.095214844
-0.095825195
-0.096435547
-0.097045898
-0.09765625
-0.098266602
-0.098876953
-0.099182129
-0.099182129
-0.098876953
-0.098571777
-0.097961426
-0.097045898
-0.096130371
-0.09552002
-0.094909668
-0.094909668
-0.094909668
-0.094909668
-0.094909668
-0.094909668
-0.094909668
-0.094604492
-0.094604492
-0.094604492
-0.094909668
-0.095214844
-0.096130371
-0.097045898
-0.097961426
-0.098571777
-0.099487305
-0.09979248
-0.10040283
-0.10070801
-0.10101318
-0.10101318
-0.10101318
-0.10070801
-0.10009766
-0.099487305
-0.098571777
-0.09765625
-0.096740723
-0.09552002
-0.094299316
-0.092468262
-0.090942383
-0.088806152
-0.086975098
-0.085144043
-0.083312988
-0.082092285
-0.080871582
-0.079956055
-0.079345703
-0.078735352
-0.078735352
-0.079040527
-0.079650879
-0.080566406
-0.081481934
-0.082702637
-0.083618164
-0.084533691
-0.085449219
-0.08605957
-0.086669922
-0.087280273
-0.087890625
-0.087890625
-0.087890625
-0.087890625
-0.087890625
-0.087890625
-0.087585449
-0.087280273
-0.086975098
-0.086975098
-0.086669922
-0.086364746
-0.086364746
-0.086364746
-0.086669922
-0.086975098
-0.087280273
-0.087890625
-0.088500977
-0.089111328
-0.08972168
-0.090332031
-0.090637207
-0.090637207
-0.090637207
-0.090026855
-0.089416504
-0.088500977
-0.087585449
-0.086669922
-0.085754395
-0.085449219
-0.085144043
-0.085144043
-0.085449219
-0.085754395
-0.08605957
-0.086669922
-0.087280273
-0.087890625
-0.088500977
-0.089416504
-0.090332031
-0.091247559
-0.092163086
-0.092773438
-0.093383789
-0.093688965
-0.093994141
-0.093994141
-0.094299316
-0.094299316
-0.094299316
-0.093994141
-0.093994141
-0.093688965
-0.093688965
-0.093994141
-0.094299316
-0.094604492
-0.095214844
-0.095825195
-0.096435547
-0.097045898
-0.09765625
-0.097961426
-0.098266602
-0.098571777
-0.098876953
-0.099182129
-0.099182129
-0.099487305
-0.099487305
-0.09979248
-0.09979248
-0.10009766
-0.10070801
-0.10101318
-0.10162354
-0.10192871
-0.10253906
-0.10284424
-0.10314941
-0.10314941
-0.10314941
-0.10314941
-0.10314941
-0.10314941
-0.10314941
-0.10314941
-0.10345459
-0.10406494
-0.10437012
-0.10498047
-0.10528564
-0.10620117
-0.10681152
-0.10742188
-0.1083374
-0.10894775
-0.10925293
-0.10955811
-0.10955811
-0.10925293
-0.10864258
-0.10742188
-0.10559082
-0.10375977
-0.10131836
-0.098571777
-0.095214844
-0.09185791
-0.088195801
-0.084228516
-0.079956055
-0.075683594
-0.071411133
-0.067443848
-0.063476562
-0.059509277
-0.056152344
-0.05279541
-0.049743652
-0.04699707
-0.045166016
-0.043640137
-0.042724609
-0.042419434
-0.042724609
-0.043029785
-0.043640137
-0.044555664
-0.045471191
-0.046386719
-0.04699707
-0.047912598
-0.048217773
-0.048522949
-0.048217773
-0.047302246
-0.045776367
-0.043640137
-0.04119873
-0.038146973
-0.034790039
-0.031433105
-0.027770996
-0.024108887
-0.020751953
-0.017089844
-0.01373291
-0.010375977
-0.007019043
-0.0042724609
-0.0015258789
0.0012207031
0.0036621094
0.0057983398
0.0076293945
0.0094604492
0.011291504
0.012512207
0.014038086
0.014953613
0.015869141
0.016479492
0.016784668
0.017089844
0.016784668
0.015869141
0.014648438
0.012817383
0.010375977
0.0076293945
0.0039672852
0.00030517578
-0.0039672852
-0.0082397461
-0.013122559
-0.018005371
-0.023498535
-0.029296875
-0.035705566
-0.042114258
-0.049133301
-0.056152344
-0.063171387
-0.069885254
-0.076599121
-0.083007812
-0.088806152
-0.094604492
-0.09979248
-0.10467529
-0.10925293
-0.11291504
-0.11627197
-0.11901855
-0.12115479
-0.12268066
-0.12420654
-0.12512207
-0.1260376
-0.12664795
-0.12695312
-0.1272583
-0.12756348
-0.12756348
-0.12817383
-0.12878418
-0.12969971
-0.13061523
-0.13153076
-0.13244629
-0.13305664
-0.13336182
-0.13366699
-0.13366699
-0.13336182
-0.13336182
-0.13336182
-0.13336182
-0.13336182
-0.13366699
-0.13336182
-0.13336182
-0.13305664
-0.13275146
-0.13244629
-0.13214111
-0.13214111
-0.13244629
-0.13275146
-0.13305664
-0.13336182
-0.13336182
-0.13336182
-0.13336182
-0.13275146
-0.13214111
-0.13153076
-0.13092041
-0.13031006
-0.13000488
-0.13000488
-0.13031006
-0.13122559
-0.13244629
-0.13458252
-0.1373291
-0.14099121
-0.14526367
-0.14984131
-0.15441895
-0.15899658
-0.16235352
-0.16418457
-0.16479492
-0.16357422
-0.15991211
-0.15350342
-0.14373779
-0.12969971
-0.11169434
-0.089416504
-0.062255859
-0.030212402
0.0067138672
0.048828125
0.094909668
0.14526367
0.19866943
0.25482178
0.3125
0.3717041
0.43151855
0.49133301
0.54992676
0.60760498
0.66345215
0.71716309
0.76812744
0.81604004
0.86029053
0.90057373
0.93688965
0.96893311
0.99639893
1.0186768
1.0354614
1.0455322
1.0488892
1.0446167
1.0324097
1.0116577
0.98297119
0.94604492
0.90179443
0.85021973
0.79223633
0.72845459
0.65979004
0.58685303
0.51177979
0.43518066
0.35888672
0.28442383
0.21270752
0.14526367
0.083007812
0.027160645
-0.022277832
-0.06439209
-0.099487305
-0.12786865
-0.14953613
-0.1651001
-0.17578125
-0.18218994
-0.18463135
-0.18463135
-0.18249512
-0.17883301
-0.17425537
-0.16937256
-0.16479492
-0.16052246
-0.15686035
-0.15411377
-0.15228271
-0.15136719
-0.15106201
-0.15136719
-0.15197754
-0.15319824
-0.15441895
-0.15594482
-0.15777588
-0.16021729
-0.16265869
-0.16540527
-0.16815186
-0.17089844
-0.17303467
-0.1751709
-0.17669678
-0.17791748
-0.17852783
-0.17913818
-0.17974854
-0.18005371
-0.18035889
-0.18035889
-0.18066406
-0.18066406
-0.18096924
-0.18096924
-0.18066406
-0.18066406
-0.18035889
-0.18005371
-0.17974854
-0.17944336
-0.17944336
-0.17944336
-0.17974854
-0.18005371
-0.18066406
-0.18066406
-0.18096924
-0.18096924
-0.18096924
-0.18127441
-0.18127441
-0.18127441
-0.18096924
-0.18066406
-0.18066406
-0.18035889
-0.18035889
-0.18035889
-0.18005371
-0.17974854
-0.17944336
-0.17913818
-0.17883301
-0.17822266
-0.1776123
-0.17669678
-0.17578125
-0.1751709
-0.17456055
-0.1739502
-0.17364502
-0.17333984
-0.17333984
-0.17303467
-0.17303467
-0.17303467
-0.17303467
-0.17303467
-0.17303467
-0.17303467
-0.17303467
-0.17303467
-0.17272949
-0.17242432
-0.17211914
-0.17150879
-0.17089844
-0.16998291
-0.16937256
-0.16845703
-0.16784668
-0.16723633
-0.1663208
-0.16540527
-0.16479492
-0.16418457
-0.16387939
-0.16357422
-0.16326904
-0.16326904
-0.16326904
-0.16296387
-0.16265869
-0.16235352
-0.16174316
-0.16113281
-0.16021729
-0.15960693
-0.15899658
-0.15869141
-0.15838623
-0.15808105
-0.15777588
-0.15716553
-0.15655518
-0.15594482
-0.1550293
-0.15380859
-0.15289307
-0.15197754
-0.15106201
-0.15045166
-0.14953613
-0.14862061
-0.14770508
-0.1461792
-0.1449585
-0.14312744
-0.14160156
-0.13977051
-0.13793945
-0.13641357
-0.13458252
-0.13305664
-0.13183594
-0.13031006
-0.12908936
-0.12756348
-0.12634277
-0.12481689
-0.12329102
-0.12176514
-0.12023926
-0.11871338
-0.1171875
-0.11566162
-0.11383057
-0.11199951
-0.11016846
-0.10803223
-0.10559082
-0.10314941
-0.10070801
-0.098266602
-0.095825195
-0.093078613
-0.090637207
-0.088195801
-0.08605957
-0.08392334
-0.081787109
-0.079345703
-0.076904297
-0.074157715
-0.071411133
-0.068359375
-0.065307617
-0.062561035
-0.059509277
-0.056152344
-0.053100586
-0.049743652
-0.046386719
-0.043029785
-0.039978027
-0.03692627
-0.033874512
-0.031433105
-0.028991699
-0.026855469
-0.025024414
-0.023498535
-0.021972656
-0.020751953
-0.019226074
-0.018310547
-0.017089844
-0.016174316
-0.015563965
-0.014648438
-0.014038086
-0.013122559
-0.012207031
-0.010986328
-0.010375977
-0.0094604492
-0.0088500977
-0.0085449219
-0.0085449219
-0.0088500977
-0.0094604492
-0.010070801
-0.010986328
-0.011901855
-0.013122559
-0.014648438
-0.016174316
-0.017700195
-0.019226074
-0.020751953
-0.022277832
-0.023803711
-0.025634766
-0.02746582
-0.029296875
-0.03112793
-0.033569336
-0.036010742
-0.038452148
-0.040893555
-0.043334961
-0.045471191
-0.047912598
-0.050354004
-0.053100586
-0.055847168
-0.059204102
-0.062255859
-0.065612793
-0.068359375
-0.071105957
-0.073547363
-0.07598877
-0.078125
-0.08026123
-0.082397461
-0.08392334
-0.084838867
-0.085754395
-0.086364746
-0.087280273
-0.088195801
-0.089111328
-0.090026855
-0.090332031
-0.090637207
-0.090637207
-0.090332031
-0.090026855
-0.08972168
-0.08972168
-0.090026855
-0.090026855
-0.090332031
-0.090332031
-0.090637207
-0.090942383
-0.090942383
-0.090942383
-0.090942383
-0.090942383
-0.090637207
-0.090637207
-0.090332031
-0.090332031
-0.090332031
-0.090332031
-0.090637207
-0.090637207
-0.090637207
-0.090637207
-0.090637207
-0.090332031
-0.090332031
-0.090332031
-0.090026855
-0.090332031
-0.090332031
-0.090332031
-0.090637207
-0.090637207
-0.090637207
-0.090942383
-0.091247559
-0.091247559
-0.091247559
-0.090942383
-0.090332031
-0.090026855
-0.08972168
-0.08972168
-0.08972168
-0.08972168
-0.08972168
-0.08972168
-0.08972168
-0.089416504
-0.089416504
-0.089111328
-0.089111328
-0.089416504
-0.08972168
-0.090637207
-0.091247559
-0.092163086
-0.093383789
-0.094299316
-0.095214844
-0.096435547
-0.097045898
-0.09765625
-0.098266602
-0.098571777
-0.098571777
-0.098571777
-0.098571777
-0.098266602
-0.097961426
-0.097351074
-0.096740723
-0.096130371
-0.09552002
-0.095214844
-0.094604492
-0.093994141
-0.093383789
-0.092468262
-0.09185791
-0.091552734
-0.090942383
-0.090942383
-0.090942383
-0.090942383
-0.091247559
-0.091552734
-0.092163086
-0.092468262
-0.093078613
-0.093688965
-0.094299316
-0.094909668
-0.095214844
-0.095825195
-0.096435547
-0.096740723
-0.097045898
-0.097045898
-0.097045898
-0.097045898
-0.097045898
-0.096740723
-0.096435547
-0.095825195
-0.094909668
-0.093994141
-0.092773438
-0.09185791
-0.090637207
-0.090026855
-0.089111328
-0.088500977
-0.088195801
-0.087890625
-0.088195801
-0.088500977
-0.088806152
-0.089111328
-0.089111328
-0.089111328
-0.089111328
-0.088806152
-0.088500977
-0.088500977
-0.088195801
-0.088195801
-0.087890625
-0.087585449
-0.087280273
-0.086669922
-0.085754395
-0.084838867
-0.08392334
-0.083312988
-0.082702637
-0.082397461
-0.082092285
-0.081787109
-0.081787109
-0.081787109
-0.081787109
-0.081787109
-0.081787109
-0.082092285
-0.082397461
-0.083007812
-0.083312988
-0.08392334
-0.084838867
-0.085754395
-0.086975098
-0.088195801
-0.090026855
-0.091552734
-0.093078613
-0.094604492
-0.095825195
-0.097045898
-0.097961426
-0.098876953
-0.09979248
-0.10040283
-0.10070801
-0.10040283
-0.10009766
-0.099487305
-0.098266602
-0.097351074
-0.096130371
-0.094909668
-0.093688965
-0.092468262
-0.091247559
-0.090637207
-0.090026855
-0.08972168
-0.090026855
-0.090026855
-0.090637207
-0.091247559
-0.092468262
-0.093688965
-0.095214844
-0.096740723
-0.098266602
-0.09979248
-0.10101318
-0.10192871
-0.10284424
-0.10314941
-0.10345459
-0.10345459
-0.10314941
-0.10284424
-0.10253906
-0.10192871
-0.10131836
-0.10070801
-0.10040283
-0.09979248
-0.099487305
-0.099487305
-0.099182129
-0.099487305
-0.09979248
-0.10070801
-0.10131836
-0.10223389
-0.10314941
-0.10375977
-0.10437012
-0.10528564
-0.105896
-0.10650635
-0.10681152
-0.10742188
-0.10772705
-0.1083374
-0.10864258
-0.10894775
-0.10925293
-0.10986328
-0.11016846
-0.11047363
-0.11077881
-0.11108398
-0.11108398
-0.11138916
-0.11169434
-0.11169434
-0.11169434
-0.11169434
-0.11169434
-0.11138916
-0.11108398
-0.11047363
-0.10955811
-0.10864258
-0.1071167
-0.10559082
-0.10375977
-0.10192871
-0.09979248
-0.098266602
-0.096740723
-0.095825195
-0.095214844
-0.094909668
-0.094909668
-0.095214844
-0.09552002
-0.095825195
-0.096435547
-0.097351074
-0.098266602
-0.099487305
-0.10070801
-0.10192871
-0.10314941
-0.10375977
-0.10406494
-0.10345459
-0.10223389
-0.10040283
-0.098266602
-0.095214844
-0.091552734
-0.087585449
-0.083312988
-0.078735352
-0.074157715
-0.069580078
-0.064697266
-0.060424805
-0.05645752
-0.053100586
-0.050354004
-0.047912598
-0.045776367
-0.044250488
-0.043029785
-0.042114258
-0.041503906
-0.04119873
-0.04119873
-0.041503906
-0.042114258
-0.042724609
-0.043029785
-0.043029785
-0.042724609
-0.041809082
-0.040588379
-0.0390625
-0.03692627
-0.034790039
-0.032043457
-0.029296875
-0.026550293
-0.023498535
-0.020751953
-0.017700195
-0.014648438
-0.011291504
-0.0076293945
-0.0039672852
-0.00061035156
0.0024414062
0.0051879883
0.0076293945
0.0094604492
0.011291504
0.013122559
0.014343262
0.015563965
0.016174316
0.016174316
0.016174316
0.015563965
0.014648438
0.013122559
0.010681152
0.0082397461
0.0051879883
0.0021362305
-0.0012207031
-0.0045776367
-0.0082397461
-0.012512207
-0.017089844
-0.022277832
-0.027770996
-0.032958984
-0.038146973
-0.043640137
-0.048828125
-0.054016113
-0.059509277
-0.065307617
-0.071105957
-0.077209473
-0.083007812
-0.088500977
-0.093994141
-0.099182129
-0.10406494
-0.10864258
-0.11291504
-0.11657715
-0.11993408
-0.12329102
-0.1260376
-0.128479
-0.13000488
-0.13122559
-0.13214111
-0.13244629
-0.13275146
-0.13275146
-0.13244629
-0.13214111
-0.13153076
-0.13061523
-0.12969971
-0.12878418
-0.12756348
-0.12634277
-0.12542725
-0.12451172
-0.12390137
-0.12329102
-0.12268066
-0.12237549
-0.12207031
-0.12176514
-0.12176514
-0.12176514
-0.12176514
-0.12176514
-0.12176514
-0.12207031
-0.12237549
-0.12268066
-0.12329102
-0.12359619
-0.12420654
-0.12481689
-0.12542725
-0.1260376
-0.12664795
-0.1272583
-0.12786865
-0.12786865
-0.12786865
-0.12786865
-0.12786865
-0.12817383
-0.128479
-0.12939453
-0.13092041
-0.13305664
-0.13549805
-0.1385498
-0.14190674
-0.14526367
-0.14862061
-0.15106201
-0.15228271
-0.15228271
-0.15075684
-0.14709473
-0.14099121
-0.13214111
-0.11993408
-0.10375977
-0.083618164
-0.059204102
-0.030212402
0.0036621094
0.041809082
0.084838867
0.13153076
0.18188477
0.23529053
0.29083252
0.34820557
0.40649414
0.46478271
0.52246094
0.57952881
0.6350708
0.68878174
0.74066162
0.78948975
0.83526611
0.8770752
0.91491699
0.9487915
0.9777832
1.0018921
1.020813
1.0333252
1.0394287
1.0379028
1.0281372
1.0101318
0.98419189
0.95001221
0.90881348
0.86090088
0.80627441
0.74615479
0.68084717
0.61126709
0.53833008
0.46356201
0.38848877
0.31402588
0.24230957
0.17425537
0.11108398
0.053710938
0.0024414062
-0.042114258
-0.079650879
-0.11047363
-0.13458252
-0.15258789
-0.16540527
-0.17333984
-0.1776123
-0.17852783
-0.1776123
-0.17486572
-0.17089844
-0.16662598
-0.16204834
-0.15777588
-0.15380859
-0.15075684
-0.14831543
-0.14678955
-0.1461792
-0.14587402
-0.1461792
-0.14709473
-0.14831543
-0.15014648
-0.15197754
-0.15411377
-0.15625
-0.15838623
-0.16052246
-0.16204834
-0.16357422
-0.16479492
-0.16601562
-0.16662598
-0.1675415
-0.16815186
-0.16876221
-0.16906738
-0.16906738
-0.16937256
-0.16906738
-0.16906738
-0.16906738
-0.16876221
-0.16906738
-0.16906738
-0.16937256
-0.16967773
-0.16998291
-0.17028809
-0.17059326
-0.17120361
-0.17181396
-0.17242432
-0.17303467
-0.17364502
-0.1739502
-0.1739502
-0.1739502
-0.17364502
-0.17333984
-0.17272949
-0.17211914
-0.17181396
-0.17120361
-0.17089844
-0.17089844
-0.17120361
-0.17181396
-0.17242432
-0.17272949
-0.17333984
-0.1739502
-0.17456055
-0.17486572
-0.1751709
-0.17547607
-0.17578125
-0.17578125
-0.17547607
-0.17547607
-0.17486572
-0.17425537
-0.17333984
-0.17242432
-0.17120361
-0.16998291
-0.16906738
-0.16845703
-0.16784668
-0.16723633
-0.16693115
-0.16693115
-0.16662598
-0.16662598
-0.16662598
-0.16662598
-0.16693115
-0.16723633
-0.1675415
-0.1675415
-0.1675415
-0.16723633
-0.16723633
-0.16693115
-0.16662598
-0.1663208
-0.16571045
-0.16540527
-0.1651001
-0.16448975
-0.16387939
-0.16326904
-0.16296387
-0.16235352
-0.16204834
-0.16174316
-0.16143799
-0.16143799
-0.16113281
-0.16082764
-0.16052246
-0.16021729
-0.15991211
-0.15930176
-0.15838623
-0.1574707
-0.15625
-0.1550293
-0.15411377
-0.15289307
-0.15197754
-0.15075684
-0.14923096
-0.14770508
-0.1461792
-0.14465332
-0.14312744
-0.14160156
-0.14007568
-0.1385498
-0.13702393
-0.13519287
-0.13366699
-0.13214111
-0.13061523
-0.12939453
-0.12817383
-0.12695312
-0.12542725
-0.12390137
-0.12207031
-0.12023926
-0.1184082
-0.11657715
-0.11474609
-0.11291504
-0.11047363
-0.1083374
-0.10620117
-0.10375977
-0.10131836
-0.098571777
-0.095825195
-0.092773438
-0.090026855
-0.086975098
-0.08392334
-0.081176758
-0.078430176
-0.075683594
-0.073242188
-0.070800781
-0.068664551
-0.06652832
-0.064697266
-0.062866211
-0.061340332
-0.059509277
-0.057678223
-0.055847168
-0.053710938
-0.051574707
-0.049133301
-0.04699707
-0.044555664
-0.042114258
-0.039978027
-0.037841797
-0.035705566
-0.033874512
-0.032043457
-0.030212402
-0.028686523
-0.027160645
-0.025939941
-0.024414062
-0.023193359
-0.021972656
-0.020446777
-0.018920898
-0.017700195
-0.016479492
-0.015258789
-0.014343262
-0.013427734
-0.012817383
-0.011901855
-0.01159668
-0.011291504
-0.011291504
-0.01159668
-0.012207031
-0.01373291
-0.015563965
-0.017700195
-0.019836426
-0.022277832
-0.024719238
-0.026855469
-0.028991699
-0.03112793
-0.032958984
-0.034179688
-0.035400391
-0.036315918
-0.037231445
-0.037841797
-0.038757324
-0.039367676
-0.039978027
-0.04119873
-0.042724609
-0.044555664
-0.046691895
-0.049438477
-0.051879883
-0.054931641
-0.057983398
-0.061035156
-0.06439209
-0.067138672
-0.07019043
-0.072631836
-0.074768066
-0.076904297
-0.078735352
-0.08026123
-0.081481934
-0.082092285
-0.082397461
-0.082397461
-0.082397461
-0.082397461
-0.082092285
-0.082092285
-0.082092285
-0.082397461
-0.082702637
-0.083312988
-0.08392334
-0.084533691
-0.085144043
-0.085449219
-0.085754395
-0.08605957
-0.08605957
-0.08605957
-0.085754395
-0.085449219
-0.085144043
-0.084838867
-0.084533691
-0.08392334
-0.083312988
-0.082702637
-0.081787109
-0.081481934
-0.081176758
-0.081176758
-0.081481934
-0.082092285
-0.082397461
-0.083007812
-0.083618164
-0.084533691
-0.085144043
-0.085754395
-0.08605957
-0.086364746
-0.086364746
-0.086364746
-0.086669922
-0.086669922
-0.086975098
-0.086975098
-0.086975098
-0.086975098
-0.086975098
-0.086669922
-0.086364746
-0.08605957
-0.08605957
-0.08605957
-0.085754395
-0.085754395
-0.085754395
-0.085449219
-0.084838867
-0.084228516
-0.083007812
-0.082092285
-0.080871582
-0.079956055
-0.078735352
-0.077819824
-0.076904297
-0.076293945
-0.075683594
-0.075378418
-0.075378418
-0.075683594
-0.07598877
-0.076904297
-0.077819824
-0.078735352
-0.079956055
-0.081176758
-0.082092285
-0.082702637
-0.083007812
-0.083312988
-0.083312988
-0.083312988
-0.083312988
-0.082702637
-0.082092285
-0.081176758
-0.079956055
-0.078735352
-0.077819824
-0.076904297
-0.07598877
-0.075073242
-0.074768066
-0.074157715
-0.074157715
-0.074462891
-0.075073242
-0.075683594
-0.076599121
-0.077514648
-0.078430176
-0.079040527
-0.079956055
-0.080566406
-0.081481934
-0.082092285
-0.083007812
-0.083618164
-0.084228516
-0.084838867
-0.085144043
-0.085144043
-0.085144043
-0.084838867
-0.084533691
-0.084533691
-0.084228516
-0.08392334
-0.083618164
-0.083007812
-0.082397461
-0.081481934
-0.080566406
-0.079345703
-0.078430176
-0.077514648
-0.076293945
-0.075378418
-0.074157715
-0.073242188
-0.072631836
-0.072021484
-0.071716309
-0.071716309
-0.071716309
-0.07232666
-0.072937012
-0.073852539
-0.074768066
-0.075683594
-0.076904297
-0.078125
-0.079345703
-0.080566406
-0.081787109
-0.082702637
-0.083618164
-0.08392334
-0.08392334
-0.083618164
-0.083007812
-0.082702637
-0.082397461
-0.082092285
-0.082092285
-0.081787109
-0.081787109
-0.081481934
-0.081481934
-0.081176758
-0.080871582
-0.080566406
-0.08026123
-0.08026123
-0.08026123
-0.08026123
-0.08026123
-0.080566406
-0.080566406
-0.080871582
-0.081176758
-0.081481934
-0.082092285
-0.082702637
-0.083312988
-0.08392334
-0.084838867
-0.08605957
-0.087585449
-0.089111328
-0.090637207
-0.092163086
-0.093688965
-0.094909668
-0.096130371
-0.096435547
-0.096740723
-0.096435547
-0.096130371
-0.096130371
-0.096130371
-0.095825195
-0.095825195
-0.09552002
-0.095214844
-0.094909668
-0.094604492
-0.093994141
-0.093688965
-0.093688965
-0.093688965
-0.093994141
-0.094604492
-0.095214844
-0.096130371
-0.096740723
-0.097351074
-0.09765625
-0.097961426
-0.098266602
-0.098571777
-0.098571777
-0.098876953
-0.099182129
-0.099182129
-0.099182129
-0.099487305
-0.099487305
-0.09979248
-0.10009766
-0.10070801
-0.10162354
-0.10284424
-0.10375977
-0.10498047
-0.105896
-0.1071167
-0.1083374
-0.10955811
-0.11077881
-0.11169434
-0.11260986
-0.11322021
-0.11383057
-0.11383057
-0.11383057
-0.11383057
-0.11352539
-0.11291504
-0.11199951
-0.11108398
-0.11016846
-0.10925293
-0.1083374
-0.1071167
-0.10620117
-0.10559082
-0.10467529
-0.10375977
-0.10314941
-0.10253906
-0.10192871
-0.10131836
-0.10040283
-0.09979248
-0.099182129
-0.098266602
-0.097045898
-0.095825195
-0.093994141
-0.09185791
-0.089111328
-0.08605957
-0.083007812
-0.079650879
-0.076293945
-0.072937012
-0.069274902
-0.065612793
-0.061950684
-0.058288574
-0.054931641
-0.051574707
-0.048828125
-0.046691895
-0.044555664
-0.043029785
-0.042114258
-0.041809082
-0.042114258
-0.042724609
-0.043334961
-0.043945312
-0.044555664
-0.04486084
-0.04486084
-0.04486084
-0.044250488
-0.043334961
-0.041809082
-0.040283203
-0.037841797
-0.035400391
-0.032958984
-0.030517578
-0.027770996
-0.02532959
-0.023193359
-0.021057129
-0.019226074
-0.01739502
-0.015869141
-0.014343262
-0.012817383
-0.011901855
-0.010681152
-0.009765625
-0.0085449219
-0.007019043
-0.0054931641
-0.0039672852
-0.0024414062
-0.00091552734
0.00061035156
0.0021362305
0.0036621094
0.0045776367
0.0054931641
0.0054931641
0.0048828125
0.0033569336
0.00091552734
-0.002746582
-0.007019043
-0.011901855
-0.01739502
-0.023498535
-0.030212402
-0.03692627
-0.043945312
-0.050964355
-0.058288574
-0.065307617
-0.072631836
-0.079650879
-0.086364746
-0.092773438
-0.098876953
-0.10467529
-0.11016846
-0.11505127
-0.11993408
-0.12420654
-0.12817383
-0.13153076
-0.13458252
-0.13702393
-0.13916016
-0.14038086
-0.14129639
-0.14160156
-0.14160156
-0.14160156
-0.14129639
-0.14068604
-0.14007568
-0.13916016
-0.13824463
-0.13702393
-0.13580322
-0.1348877
-0.13427734
-0.13366699
-0.13305664
-0.13305664
-0.13305664
-0.13305664
-0.13366699
-0.13397217
-0.13458252
-0.13549805
-0.1361084
-0.1373291
-0.13824463
-0.13977051
-0.14099121
-0.14221191
-0.14312744
-0.14404297
-0.14465332
-0.14526367
-0.14556885
-0.14556885
-0.14556885
-0.1449585
-0.14404297
-0.14312744
-0.14190674
-0.14007568
-0.1385498
-0.13671875
-0.13519287
-0.13427734
-0.13397217
-0.13397217
-0.13458252
-0.1361084
-0.13824463
-0.14099121
-0.1449585
-0.14984131
-0.1550293
-0.16021729
-0.16448975
-0.1675415
-0.16876221
-0.16784668
-0.16448975
-0.15838623
-0.14892578
-0.1361084
-0.11962891
-0.099487305
-0.075073242
-0.046691895
-0.01373291
0.023498535
0.065002441
0.11016846
0.15869141
0.20996094
0.2633667
0.31829834
0.37414551
0.43029785
0.48583984
0.54016113
0.59295654
0.6439209
0.6930542
0.73974609
0.78338623
0.82427979
0.86120605
0.89447021
0.92346191
0.94726562
0.96557617
0.97686768
0.98083496
0.97717285
0.96588135
0.9463501
0.9197998
0.88562012
0.84442139
0.79681396
0.74279785
0.68359375
0.61981201
0.55206299
0.48187256
0.4107666
0.33935547
0.26947021
0.20202637
0.1385498
0.079650879
0.025939941
-0.02166748
-0.063476562
-0.098571777
-0.12786865
-0.15106201
-0.16876221
-0.18188477
-0.19042969
-0.19561768
-0.19775391
-0.19775391
-0.19592285
-0.19256592
-0.18859863
-0.18432617
-0.18005371
-0.17608643
-0.17272949
-0.17028809
-0.16815186
-0.16693115
-0.1663208
-0.1663208
-0.16693115
-0.16845703
-0.17028809
-0.17242432
-0.17486572
-0.1776123
-0.18005371
-0.18249512
-0.18493652
-0.18676758
-0.18859863
-0.18981934
-0.19134521
-0.19226074
-0.19348145
-0.1940918
-0.19470215
-0.1953125
-0.19592285
-0.1965332
-0.19714355
-0.19775391
-0.19866943
-0.19958496
-0.20019531
-0.20080566
-0.20141602
-0.20141602
-0.20141602
-0.20111084
-0.20111084
-0.20080566
-0.20019531
-0.19958496
-0.19897461
-0.19775391
-0.1965332
-0.19561768
-0.19439697
-0.19317627
-0.19195557
-0.19104004
-0.19012451
-0.18920898
-0.18859863
-0.18798828
-0.18768311
-0.18768311
-0.18798828
-0.18829346
-0.18829346
-0.18859863
-0.18859863
-0.18859863
-0.18859863
-0.18829346
-0.18798828
-0.18768311
-0.18707275
-0.1864624
-0.18554688
-0.18463135
-0.18371582
-0.18280029
-0.18188477
-0.18157959
-0.18096924
-0.18096924
-0.18096924
-0.18127441
-0.18188477
-0.18249512
-0.18371582
-0.18493652
-0.18615723
-0.18768311
-0.18890381
-0.18981934
-0.19073486
-0.19165039
-0.19226074
-0.19226074
-0.19256592
-0.19256592
-0.19195557
-0.19134521
-0.19073486
-0.19012451
-0.18951416
-0.18890381
-0.18829346
-0.18798828
-0.18737793
-0.18676758
-0.1864624
-0.18554688
-0.18493652
-0.184021
-0.18310547
-0.18249512
-0.18157959
-0.18066406
-0.17974854
-0.17883301
-0.17791748
-0.17700195
-0.17578125
-0.17456055
-0.17333984
-0.17272949
-0.17272949
-0.17303467
-0.1739502
-0.17486572
-0.17608643
-0.17730713
-0.17822266
-0.17913818
-0.18005371
-0.18066406
-0.18127441
-0.18188477
-0.18249512
-0.18249512
-0.18249512
-0.18188477
-0.18066406
-0.17883301
-0.17700195
-0.17456055
-0.17181396
-0.16906738
-0.16601562
-0.16296387
-0.16021729
-0.15716553
-0.15472412
-0.15197754
-0.14953613
-0.14709473
-0.14465332
-0.14221191
-0.14007568
-0.13793945
-0.1361084
-0.13458252
-0.13305664
-0.13153076
-0.13031006
-0.12878418
-0.12756348
-0.1260376
-0.12451172
-0.12268066
-0.12115479
-0.11932373
-0.11749268
-0.11566162
-0.11352539
-0.11138916
-0.10925293
-0.1071167
-0.10498047
-0.10253906
-0.10009766
-0.09765625
-0.095214844
-0.093078613
-0.090942383
-0.088806152
-0.086975098
-0.085144043
-0.083618164
-0.082092285
-0.080871582
-0.079650879
-0.078430176
-0.077514648
-0.076599121
-0.075378418
-0.074157715
-0.072937012
-0.071411133
-0.070495605
-0.069274902
-0.068359375
-0.067443848
-0.066833496
-0.06652832
-0.066223145
-0.066223145
-0.06652832
-0.066833496
-0.067138672
-0.068054199
-0.069274902
-0.070495605
-0.072021484
-0.074157715
-0.076293945
-0.078430176
-0.080566406
-0.082397461
-0.08392334
-0.084838867
-0.085449219
-0.085754395
-0.08605957
-0.08605957
-0.08605957
-0.08605957
-0.08605957
-0.086364746
-0.086669922
-0.087280273
-0.087890625
-0.088500977
-0.089111328
-0.090332031
-0.092163086
-0.093994141
-0.095825195
-0.097961426
-0.10040283
-0.10314941
-0.105896
-0.10864258
-0.11138916
-0.11413574
-0.11627197
-0.1184082
-0.11993408
-0.12115479
-0.12237549
-0.12329102
-0.12420654
-0.12481689
-0.12542725
-0.1260376
-0.1260376
-0.1260376
-0.1260376
-0.1260376
-0.1260376
-0.1260376
-0.1260376
-0.1260376
-0.12573242
-0.12542725
-0.12481689
-0.12420654
-0.12359619
-0.12298584
-0.12237549
-0.12176514
-0.12115479
-0.12023926
-0.11932373
-0.1184082
-0.11749268
-0.11627197
-0.11535645
-0.11474609
-0.11383057
-0.11352539
-0.11322021
-0.11322021
-0.11352539
-0.11444092
-0.11505127
-0.1159668
-0.11688232
-0.11779785
-0.11871338
-0.11993408
-0.12084961
-0.12176514
-0.12298584
-0.12359619
-0.12451172
-0.12481689
-0.12512207
-0.12512207
-0.12512207
-0.12451172
-0.12390137
-0.12329102
-0.12268066
-0.12207031
-0.12145996
-0.12084961
-0.12054443
-0.11993408
-0.11932373
-0.11871338
-0.11810303
-0.11749268
-0.1171875
-0.11688232
-0.11657715
-0.11657715
-0.11657715
-0.11688232
-0.11749268
-0.11810303
-0.11871338
-0.11901855
-0.11932373
-0.11962891
-0.11932373
-0.11932373
-0.11901855
-0.11871338
-0.1184082
-0.11810303
-0.11749268
-0.1171875
-0.11688232
-0.11657715
-0.11627197
-0.1159668
-0.1159668
-0.1159668
-0.1159668
-0.11627197
-0.11688232
-0.11779785
-0.11901855
-0.11993408
-0.12084961
-0.12145996
-0.12207031
-0.12237549
-0.12268066
-0.12268066
-0.12268066
-0.12268066
-0.12237549
-0.12145996
-0.12054443
-0.11932373
-0.11810303
-0.11688232
-0.11627197
-0.11535645
-0.11474609
-0.11383057
-0.11322021
-0.11260986
-0.11230469
-0.11199951
-0.11169434
-0.11138916
-0.11138916
-0.11138916
-0.11108398
-0.11138916
-0.11138916
-0.11169434
-0.11199951
-0.11230469
-0.11260986
-0.11291504
-0.11322021
-0.11352539
-0.11413574
-0.11444092
-0.11505127
-0.11535645
-0.11566162
-0.1159668
-0.1159668
-0.11627197
-0.11627197
-0.11627197
-0.11627197
-0.1159668
-0.1159668
-0.11566162
-0.11505127
-0.11505127
-0.11474609
-0.11444092
-0.11444092
-0.11413574
-0.11413574
-0.11383057
-0.11383057
-0.11383057
-0.11383057
-0.11383057
-0.11383057
-0.11352539
-0.11352539
-0.11352539
-0.11352539
-0.11352539
-0.11322021
-0.11352539
-0.11352539
-0.11322021
-0.11322021
-0.11260986
-0.11230469
-0.11199951
-0.11199951
-0.11169434
-0.11169434
-0.11169434
-0.11169434
-0.11138916
-0.11138916
-0.11138916
-0.11169434
-0.11169434
-0.11169434
-0.11199951
-0.11230469
-0.11291504
-0.11322021
-0.11383057
-0.11413574
-0.11444092
-0.11505127
-0.11535645
-0.1159668
-0.11657715
-0.11688232
-0.11749268
-0.11779785
-0.1184082
-0.11901855
-0.11962891
-0.12023926
-0.12084961
-0.12115479
-0.12145996
-0.12176514
-0.12176514
-0.12145996
-0.12115479
-0.12054443
-0.11962891
-0.11871338
-0.11779785
-0.11657715
-0.11505127
-0.11322021
-0.11077881
-0.1083374
-0.10559082
-0.10284424
-0.10040283
-0.097961426
-0.095825195
-0.093688965
-0.091552734
-0.089416504
-0.087280273
-0.085144043
-0.083007812
-0.080871582
-0.078430176
-0.07598877
-0.073852539
-0.071716309
-0.069885254
-0.068054199
-0.066223145
-0.06439209
-0.062866211
-0.061340332
-0.060119629
-0.058898926
-0.057678223
-0.057067871
-0.056762695
-0.05645752
-0.05645752
-0.05645752
-0.05645752
-0.056152344
-0.055847168
-0.054931641
-0.054016113
-0.05279541
-0.051574707
-0.050354004
-0.048522949
-0.046691895
-0.043945312
-0.040893555
-0.037841797
-0.035095215
-0.032043457
-0.029296875
-0.026550293
-0.024108887
-0.02166748
-0.01953125
-0.017700195
-0.015869141
-0.014038086
-0.012512207
-0.011291504
-0.010070801
-0.0088500977
-0.0079345703
-0.007019043
-0.0061035156
-0.0054931641
-0.0051879883
-0.0054931641
-0.0064086914
-0.0079345703
-0.009765625
-0.011901855
-0.014648438
-0.017700195
-0.021362305
-0.02532959
-0.029907227
-0.035095215
-0.040893555
-0.047302246
-0.053710938
-0.060424805
-0.067138672
-0.073852539
-0.080566406
-0.087585449
-0.093994141
-0.10040283
-0.10650635
-0.11230469
-0.11810303
-0.12329102
-0.12817383
-0.13305664
-0.1373291
-0.14099121
-0.14434814
-0.14709473
-0.14923096
-0.15106201
-0.15258789
-0.15350342
-0.15411377
-0.15441895
-0.15472412
-0.15441895
-0.15380859
-0.15319824
-0.15258789
-0.15167236
-0.15045166
-0.14953613
-0.14892578
-0.14831543
-0.14770508
-0.14709473
-0.14648438
-0.1461792
-0.14556885
-0.14526367
-0.14465332
-0.14434814
-0.14373779
-0.14343262
-0.14282227
-0.14251709
-0.14251709
-0.14251709
-0.14312744
-0.14343262
-0.14373779
-0.14434814
-0.14465332
-0.14526367
-0.14587402
-0.14648438
-0.1473999
-0.14831543
-0.14892578
-0.14953613
-0.15014648
-0.15014648
-0.15045166
-0.15014648
-0.15014648
-0.15014648
-0.15014648
-0.15045166
-0.15136719
-0.15228271
-0.15380859
-0.15594482
-0.15777588
-0.15991211
-0.16143799
-0.16235352
-0.16235352
-0.16082764
-0.15777588
-0.15258789
-0.14526367
-0.13519287
-0.12207031
-0.10559082
-0.085449219
-0.061340332
-0.03326416
-0.00091552734
0.035400391
0.075378418
0.11871338
0.1651001
0.2142334
0.26580811
0.31890869
0.37322998
0.42785645
0.48217773
0.5355835
0.58776855
0.63781738
0.68572998
0.730896
0.77331543
0.81268311
0.84838867
0.8807373
0.90881348
0.93261719
0.95092773
0.96313477
0.96862793
0.96679688
0.95703125
0.93933105
0.91430664
0.88195801
0.84289551
0.79742432
0.74645996
0.69000244
0.62896729
0.56427002
0.49682617
0.42724609
0.35705566
0.28778076
0.22064209
0.15716553
0.097961426
0.044250488
-0.0036621094
-0.045166016
-0.080566406
-0.10986328
-0.13366699
-0.15228271
-0.16601562
-0.17608643
-0.18218994
-0.18585205
-0.18707275
-0.1864624
-0.18493652
-0.18249512
-0.17974854
-0.17669678
-0.17364502
-0.17120361
-0.16906738
-0.1675415
-0.16662598
-0.16601562
-0.16601562
-0.1663208
-0.16693115
-0.16815186
-0.16967773
-0.17089844
-0.17211914
-0.17303467
-0.1739502
-0.17456055
-0.17547607
-0.1763916
-0.17700195
-0.1776123
-0.17791748
-0.17791748
-0.1776123
-0.17730713
-0.17700195
-0.17669678
-0.17608643
-0.17547607
-0.1751709
-0.1751709
-0.1751709
-0.17578125
-0.1763916
-0.17730713
-0.17791748
-0.17883301
-0.17974854
-0.18096924
-0.18188477
-0.18280029
-0.184021
-0.18493652
-0.18615723
-0.18707275
-0.18737793
-0.18768311
-0.18798828
-0.18768311
-0.18737793
-0.18707275
-0.1864624
-0.18615723
-0.1852417
-0.18463135
-0.18371582
-0.18249512
-0.18127441
-0.18005371
-0.17852783
-0.17669678
-0.1751709
-0.17364502
-0.17211914
-0.17059326
-0.16906738
-0.16723633
-0.16540527
-0.16387939
-0.16235352
-0.16082764
-0.15991211
-0.15899658
-0.15869141
-0.15869141
-0.15869141
-0.15930176
-0.16021729
-0.16113281
-0.16204834
-0.16326904
-0.16448975
-0.16571045
-0.16723633
-0.16845703
-0.16937256
-0.16998291
-0.17028809
-0.17059326
-0.17028809
-0.16998291
-0.16967773
-0.16906738
-0.16815186
-0.16693115
-0.16571045
-0.16418457
-0.16296387
-0.16204834
-0.16143799
-0.16113281
-0.16082764
-0.16082764
-0.16082764
-0.16052246
-0.16021729
-0.15991211
-0.15960693
-0.15960693
-0.15930176
-0.15930176
-0.15930176
-0.15899658
-0.15869141
-0.15838623
-0.1574707
-0.15686035
-0.15594482
-0.15533447
-0.15472412
-0.15411377
-0.15380859
-0.15350342
-0.15319824
-0.15258789
-0.15228271
-0.15136719
-0.15075684
-0.14953613
-0.14862061
-0.14770508
-0.14678955
-0.14587402
-0.14465332
-0.14312744
-0.14190674
-0.14038086
-0.13885498
-0.1373291
-0.13580322
-0.13427734
-0.13275146
-0.13153076
-0.13031006
-0.12878418
-0.1272583
-0.1260376
-0.12420654
-0.12268066
-0.12084961
-0.11871338
-0.11688232
-0.11474609
-0.11230469
-0.10986328
-0.10742188
-0.10467529
-0.10192871
-0.099487305
-0.096740723
-0.094299316
-0.092163086
-0.090026855
-0.088195801
-0.08605957
-0.084228516
-0.082702637
-0.080871582
-0.079345703
-0.077514648
-0.07598877
-0.074768066
-0.073547363
-0.07232666
-0.071105957
-0.069885254
-0.068359375
-0.06652832
-0.064697266
-0.063171387
-0.061645508
-0.060424805
-0.059204102
-0.057983398
-0.056762695
-0.055541992
-0.054016113
-0.052185059
-0.050354004
-0.048522949
-0.046386719
-0.044250488
-0.042419434
-0.040893555
-0.039367676
-0.038146973
-0.037536621
-0.036621094
-0.036010742
-0.035400391
-0.035095215
-0.034790039
-0.034790039
-0.035095215
-0.035705566
-0.036621094
-0.037841797
-0.039367676
-0.04119873
-0.043029785
-0.04486084
-0.04699707
-0.048828125
-0.050964355
-0.052490234
-0.054016113
-0.055541992
-0.05645752
-0.057678223
-0.058898926
-0.060119629
-0.061340332
-0.062255859
-0.063476562
-0.064697266
-0.065612793
-0.066833496
-0.067749023
-0.068969727
-0.069885254
-0.071105957
-0.07232666
-0.073547363
-0.075378418
-0.077209473
-0.079345703
-0.081176758
-0.082702637
-0.084533691
-0.08605957
-0.087585449
-0.089111328
-0.090637207
-0.092163086
-0.093383789
-0.094299316
-0.094909668
-0.09552002
-0.095825195
-0.096130371
-0.096435547
-0.096740723
-0.097045898
-0.097351074
-0.09765625
-0.098266602
-0.098876953
-0.099182129
-0.09979248
-0.10040283
-0.10101318
-0.10162354
-0.10192871
-0.10192871
-0.10192871
-0.10162354
-0.10131836
-0.10101318
-0.10040283
-0.099487305
-0.098571777
-0.097351074
-0.095825195
-0.094299316
-0.093078613
-0.09185791
-0.090637207
-0.090026855
-0.089416504
-0.089111328
-0.088806152
-0.088500977
-0.088195801
-0.088195801
-0.088500977
-0.089111328
-0.090026855
-0.091247559
-0.092163086
-0.093078613
-0.094299316
-0.095214844
-0.096435547
-0.097351074
-0.098571777
-0.099487305
-0.10040283
-0.10131836
-0.10192871
-0.10284424
-0.10314941
-0.10375977
-0.10406494
-0.10437012
-0.10437012
-0.10437012
-0.10467529
-0.10467529
-0.10437012
-0.10437012
-0.10406494
-0.10345459
-0.10284424
-0.10223389
-0.10131836
-0.10040283
-0.099487305
-0.098571777
-0.097351074
-0.096130371
-0.094909668
-0.093994141
-0.092773438
-0.091552734
-0.090637207
-0.089416504
-0.088500977
-0.087280273
-0.086669922
-0.086364746
-0.086364746
-0.086975098
-0.087890625
-0.088806152
-0.090026855
-0.091247559
-0.092468262
-0.093383789
-0.094604492
-0.09552002
-0.096435547
-0.09765625
-0.098571777
-0.099182129
-0.099487305
-0.09979248
-0.099487305
-0.099182129
-0.098876953
-0.098266602
-0.09765625
-0.097351074
-0.096740723
-0.096435547
-0.096130371
-0.095825195
-0.09552002
-0.095214844
-0.094604492
-0.093688965
-0.093078613
-0.092773438
-0.093078613
-0.093383789
-0.094299316
-0.094909668
-0.09552002
-0.095825195
-0.096130371
-0.096435547
-0.096435547
-0.096740723
-0.097045898
-0.097351074
-0.09765625
-0.09765625
-0.097351074
-0.097045898
-0.096435547
-0.09552002
-0.094604492
-0.093688965
-0.092773438
-0.09185791
-0.091247559
-0.090332031
-0.08972168
-0.089416504
-0.089416504
-0.090026855
-0.090942383
-0.092163086
-0.093383789
-0.094604492
-0.095825195
-0.097351074
-0.098571777
-0.09979248
-0.10101318
-0.10192871
-0.10253906
-0.10314941
-0.10375977
-0.10406494
-0.10437012
-0.10467529
-0.10467529
-0.10437012
-0.10375977
-0.10314941
-0.10253906
-0.10192871
-0.10131836
-0.10070801
-0.10009766
-0.09979248
-0.09979248
-0.099487305
-0.099487305
-0.099487305
-0.099182129
-0.099182129
-0.099487305
-0.09979248
-0.10009766
-0.10070801
-0.10131836
-0.10192871
-0.10253906
-0.10284424
-0.10284424
-0.10314941
-0.10314941
-0.10375977
-0.10406494
-0.10437012
-0.10467529
-0.10467529
-0.10467529
-0.10437012
-0.10406494
-0.10406494
-0.10406494
-0.10437012
-0.10467529
-0.10498047
-0.10559082
-0.105896
-0.10650635
-0.10681152
-0.1071167
-0.10772705
-0.1083374
-0.10864258
-0.10894775
-0.10925293
-0.10925293
-0.10894775
-0.10864258
-0.1083374
-0.10803223
-0.10742188
-0.10681152
-0.10620117
-0.105896
-0.10528564
-0.10498047
-0.10498047
-0.10498047
-0.10498047
-0.10498047
-0.10528564
-0.10559082
-0.105896
-0.10620117
-0.10681152
-0.1071167
-0.10742188
-0.1083374
-0.10894775
-0.10955811
-0.11047363
-0.11077881
-0.11138916
-0.11138916
-0.11138916
-0.11138916
-0.11077881
-0.11047363
-0.10955811
-0.10894775
-0.1083374
-0.10772705
-0.1071167
-0.10620117
-0.10498047
-0.10375977
-0.10223389
-0.10070801
-0.098876953
-0.097045898
-0.094909668
-0.092773438
-0.090637207
-0.088195801
-0.085754395
-0.083007812
-0.08026123
-0.077209473
-0.074157715
-0.070800781
-0.067443848
-0.064086914
-0.061035156
-0.057983398
-0.054931641
-0.052185059
-0.049438477
-0.047302246
-0.045471191
-0.044250488
-0.043029785
-0.042419434
-0.041809082
-0.041503906
-0.04119873
-0.04119873
-0.04119873
-0.04119873
-0.04119873
-0.040893555
-0.039978027
-0.038452148
-0.036621094
-0.034790039
-0.032653809
-0.030517578
-0.027770996
-0.025024414
-0.021972656
-0.018615723
-0.015563965
-0.012817383
-0.010070801
-0.0076293945
-0.0054931641
-0.0033569336
-0.0012207031
0.00061035156
0.0024414062
0.0042724609
0.0057983398
0.007019043
0.0082397461
0.0091552734
0.009765625
0.010375977
0.011291504
0.012207031
0.013427734
0.014343262
0.015258789
0.015869141
0.015869141
0.015563965
0.014953613
0.01373291
0.011901855
0.009765625
0.007019043
0.0033569336
-0.00091552734
-0.0061035156
-0.012207031
-0.018615723
-0.02532959
-0.032348633
-0.039672852
-0.047302246
-0.054931641
-0.062561035
-0.07019043
-0.077514648
-0.084533691
-0.090637207
-0.096740723
-0.10192871
-0.10650635
-0.11047363
-0.11383057
-0.11627197
-0.1184082
-0.11993408
-0.12115479
-0.12176514
-0.12237549
-0.12298584
-0.12329102
-0.12329102
-0.12329102
-0.12329102
-0.12329102
-0.12390137
-0.12451172
-0.12542725
-0.12634277
-0.1272583
-0.12817383
-0.12908936
-0.13000488
-0.13092041
-0.13183594
-0.13244629
-0.13305664
-0.13336182
-0.13336182
-0.13305664
-0.13275146
-0.13244629
-0.13183594
-0.13122559
-0.13031006
-0.12939453
-0.12817383
-0.1272583
-0.1260376
-0.12512207
-0.12420654
-0.12329102
-0.12237549
-0.12145996
-0.12084961
-0.12054443
-0.12084961
-0.12115479
-0.12176514
-0.12298584
-0.12420654
-0.12573242
-0.1272583
-0.12908936
-0.13153076
-0.13458252
-0.13824463
-0.14251709
-0.14709473
-0.15106201
-0.15441895
-0.15625
-0.15655518
-0.15472412
-0.15075684
-0.14404297
-0.1348877
-0.12237549
-0.10650635
-0.087280273
-0.063781738
-0.036315918
-0.0048828125
0.03112793
0.071105957
0.11535645
0.16296387
0.21392822
0.26733398
0.32226562
0.37841797
0.43518066
0.49224854
0.54901123
0.6048584
0.65917969
0.71166992
0.76202393
0.80963135
0.85388184
0.89416504
0.93048096
0.96282959
0.99060059
1.0131836
1.0302734
1.0406494
1.0446167
1.0406494
1.0287476
1.008606
0.98022461
0.94390869
0.90026855
0.85021973
0.79376221
0.73181152
0.6652832
0.5947876
0.52154541
0.44708252
0.37200928
0.29846191
0.22766113
0.16021729
0.097961426
0.04119873
-0.0091552734
-0.05279541
-0.089416504
-0.11932373
-0.14282227
-0.16021729
-0.17242432
-0.17974854
-0.18371582
-0.18463135
-0.18341064
-0.18035889
-0.17608643
-0.17150879
-0.16662598
-0.16204834
-0.15808105
-0.15472412
-0.15228271
-0.15075684
-0.15014648
-0.15045166
-0.15136719
-0.15258789
-0.15411377
-0.15594482
-0.15808105
-0.16021729
-0.16235352
-0.16418457
-0.16601562
-0.1675415
-0.16906738
-0.16998291
-0.17059326
-0.17150879
-0.17211914
-0.17272949
-0.17333984
-0.1739502
-0.17486572
-0.17578125
-0.17669678
-0.1776123
-0.17852783
-0.17913818
-0.18005371
-0.18066406
-0.18127441
-0.18188477
-0.18249512
-0.18280029
-0.18249512
-0.18249512
-0.18188477
-0.18127441
-0.18066406
-0.17974854
-0.17883301
-0.17791748
-0.17700195
-0.1763916
-0.17578125
-0.1751709
-0.17486572
-0.17456055
-0.1739502
-0.17364502
-0.17364502
-0.17364502
-0.1739502
-0.17425537
-0.17456055
-0.17486572
-0.1751709
-0.1751709
-0.1751709
-0.17456055
-0.1739502
-0.17303467
-0.17242432
-0.17150879
-0.17089844
-0.17059326
-0.16998291
-0.16937256
-0.16876221
-0.16815186
-0.16784668
-0.1675415
-0.16693115
-0.1663208
-0.16571045
-0.16540527
-0.16479492
-0.16448975
-0.16387939
-0.16296387
-0.16204834
-0.16082764
-0.15960693
-0.15838623
-0.15716553
-0.15594482
-0.1550293
-0.15380859
-0.15289307
-0.15167236
-0.15075684
-0.14984131
-0.14923096
-0.14892578
-0.14892578
-0.14923096
-0.14923096
-0.14953613
-0.14923096
-0.14892578
-0.14862061
-0.14831543
-0.14770508
-0.14709473
-0.14648438
-0.14587402
-0.14526367
-0.14434814
-0.14343262
-0.14251709
-0.14160156
-0.14038086
-0.13916016
-0.13824463
-0.13702393
-0.1361084
-0.13519287
-0.13397217
-0.13305664
-0.13214111
-0.13092041
-0.13000488
-0.12908936
-0.12786865
-0.12664795
-0.12542725
-0.12390137
-0.12268066
-0.12084961
-0.11901855
-0.11657715
-0.11383057
-0.11108398
-0.10803223
-0.10528564
-0.10284424
-0.10070801
-0.098876953
-0.097351074
-0.095825195
-0.094299316
-0.092468262
-0.090637207
-0.089111328
-0.087585449
-0.08605957
-0.084838867
-0.083312988
-0.081787109
-0.08026123
-0.078735352
-0.077209473
-0.075683594
-0.074157715
-0.07232666
-0.070495605
-0.068359375
-0.066223145
-0.064086914
-0.061950684
-0.059204102
-0.05645752
-0.053405762
-0.05065918
-0.047607422
-0.04486084
-0.041809082
-0.038757324
-0.035400391
-0.031738281
-0.027770996
-0.023803711
-0.020141602
-0.016784668
-0.01373291
-0.010681152
-0.0082397461
-0.0057983398
-0.0039672852
-0.0024414062
-0.0015258789
-0.0012207031
-0.00091552734
-0.0012207031
-0.0015258789
-0.0021362305
-0.002746582
-0.0030517578
-0.0036621094
-0.0042724609
-0.0051879883
-0.0061035156
-0.007019043
-0.0079345703
-0.0088500977
-0.0094604492
-0.010375977
-0.01159668
-0.012512207
-0.013427734
-0.014648438
-0.015563965
-0.016784668
-0.017700195
-0.018920898
-0.019836426
-0.020751953
-0.021972656
-0.023193359
-0.025024414
-0.026855469
-0.028991699
-0.031433105
-0.033569336
-0.036010742
-0.038452148
-0.040893555
-0.043334961
-0.045776367
-0.048522949
-0.051269531
-0.054016113
-0.056762695
-0.059509277
-0.062255859
-0.065002441
-0.067443848
-0.069580078
-0.071411133
-0.073242188
-0.074462891
-0.075683594
-0.076904297
-0.078125
-0.079345703
-0.08026123
-0.081176758
-0.081787109
-0.082092285
-0.082397461
-0.082702637
-0.083007812
-0.083618164
-0.084228516
-0.084838867
-0.085449219
-0.085754395
-0.08605957
-0.08605957
-0.085754395
-0.085449219
-0.084838867
-0.084533691
-0.08392334
-0.083312988
-0.082397461
-0.081176758
-0.08026123
-0.079040527
-0.078125
-0.076904297
-0.07598877
-0.074768066
-0.074157715
-0.073852539
-0.073852539
-0.074157715
-0.074768066
-0.075378418
-0.076293945
-0.077209473
-0.078430176
-0.079345703
-0.080566406
-0.081787109
-0.082702637
-0.08392334
-0.084838867
-0.085449219
-0.086364746
-0.086669922
-0.086975098
-0.086975098
-0.086669922
-0.08605957
-0.085144043
-0.084533691
-0.083618164
-0.082702637
-0.081787109
-0.080871582
-0.08026123
-0.079650879
-0.079040527
-0.078430176
-0.078125
-0.077514648
-0.076904297
-0.076293945
-0.07598877
-0.075378418
-0.074768066
-0.074768066
-0.074768066
-0.074768066
-0.075073242
-0.075073242
-0.075073242
-0.075073242
-0.075073242
-0.075073242
-0.075073242
-0.074768066
-0.074462891
-0.073852539
-0.073242188
-0.072631836
-0.07232666
-0.071716309
-0.071411133
-0.071105957
-0.070800781
-0.07019043
-0.069885254
-0.069580078
-0.069274902
-0.068664551
-0.068664551
-0.068359375
-0.068359375
-0.068664551
-0.069274902
-0.069580078
-0.070495605
-0.071105957
-0.071716309
-0.072021484
-0.072021484
-0.072021484
-0.072021484
-0.072021484
-0.072021484
-0.07232666
-0.07232666
-0.072021484
-0.072021484
-0.072021484
-0.07232666
-0.072937012
-0.073242188
-0.073547363
-0.073547363
-0.073852539
-0.074157715
-0.074157715
-0.074157715
-0.074157715
-0.074157715
-0.074157715
-0.074157715
-0.073852539
-0.073547363
-0.072937012
-0.07232666
-0.071716309
-0.070800781
-0.07019043
-0.069274902
-0.068359375
-0.067443848
-0.06652832
-0.065612793
-0.064697266
-0.063781738
-0.063171387
-0.062255859
-0.061340332
-0.060424805
-0.059509277
-0.05859375
-0.057983398
-0.057678223
-0.057373047
-0.057067871
-0.057067871
-0.057067871
-0.057678223
-0.058288574
-0.059204102
-0.060424805
-0.061645508
-0.062866211
-0.064086914
-0.065307617
-0.06652832
-0.067443848
-0.068664551
-0.069274902
-0.07019043
-0.070800781
-0.071411133
-0.072021484
-0.07232666
-0.072631836
-0.07232666
-0.072021484
-0.071716309
-0.071105957
-0.070800781
-0.070495605
-0.07019043
-0.069885254
-0.069580078
-0.069274902
-0.069580078
-0.069885254
-0.07019043
-0.070800781
-0.071411133
-0.07232666
-0.072937012
-0.073547363
-0.073852539
-0.074157715
-0.074157715
-0.073852539
-0.073852539
-0.073547363
-0.072937012
-0.07232666
-0.071411133
-0.07019043
-0.068969727
-0.067749023
-0.06652832
-0.065307617
-0.064086914
-0.062866211
-0.061950684
-0.061035156
-0.060424805
-0.060119629
-0.060119629
-0.06072998
-0.061035156
-0.061950684
-0.062866211
-0.064086914
-0.065307617
-0.066833496
-0.068054199
-0.068969727
-0.069885254
-0.070495605
-0.070800781
-0.071105957
-0.071716309
-0.07232666
-0.072937012
-0.073852539
-0.074768066
-0.075378418
-0.075683594
-0.075683594
-0.075378418
-0.074768066
-0.074157715
-0.073852539
-0.073852539
-0.073852539
-0.074157715
-0.074462891
-0.074462891
-0.074768066
-0.074768066
-0.074462891
-0.074462891
-0.074462891
-0.074462891
-0.074157715
-0.074157715
-0.074157715
-0.074157715
-0.074462891
-0.074768066
-0.074768066
-0.074768066
-0.074462891
-0.073852539
-0.073242188
-0.07232666
-0.071105957
-0.07019043
-0.068969727
-0.067443848
-0.065917969
-0.064086914
-0.061950684
-0.059509277
-0.057067871
-0.054321289
-0.051269531
-0.047912598
-0.044555664
-0.040893555
-0.037536621
-0.034179688
-0.030822754
-0.027770996
-0.025024414
-0.022583008
-0.020446777
-0.018615723
-0.01739502
-0.016174316
-0.014953613
-0.014343262
-0.014038086
-0.014038086
-0.014648438
-0.014953613
-0.015563965
-0.015869141
-0.015869141
-0.015563965
-0.014953613
-0.014038086
-0.012817383
-0.01159668
-0.010070801
-0.0082397461
-0.0061035156
-0.0036621094
-0.0012207031
0.0015258789
0.0039672852
0.0067138672
0.0091552734
0.01159668
0.014038086
0.016479492
0.018920898
0.021057129
0.023498535
0.025634766
0.02746582
0.029296875
0.030822754
0.032043457
0.03326416
0.033874512
0.034484863
0.034790039
0.034790039
0.034484863
0.033569336
0.032653809
0.03112793
0.028991699
0.026550293
0.023498535
0.019836426
0.015563965
0.010986328
0.0061035156
0.0012207031
-0.0039672852
-0.0094604492
-0.015258789
-0.021362305
-0.027160645
-0.03326416
-0.0390625
-0.045166016
-0.050964355
-0.057067871
-0.063171387
-0.069274902
-0.075378418
-0.081481934
-0.087280273
-0.092773438
-0.09765625
-0.10162354
-0.10528564
-0.1083374
-0.11108398
-0.11352539
-0.11566162
-0.1171875
-0.1184082
-0.11871338
-0.11901855
-0.11871338
-0.11810303
-0.1171875
-0.11657715
-0.11566162
-0.11505127
-0.11474609
-0.11413574
-0.11352539
-0.11322021
-0.11291504
-0.11260986
-0.11230469
-0.11199951
-0.11169434
-0.11108398
-0.11047363
-0.10955811
-0.10894775
-0.1083374
-0.10772705
-0.10742188
-0.1071167
-0.1071167
-0.1071167
-0.10742188
-0.10772705
-0.1083374
-0.10955811
-0.11077881
-0.11260986
-0.11413574
-0.1159668
-0.11749268
-0.11901855
-0.12054443
-0.12207031
-0.12359619
-0.12512207
-0.12695312
-0.12878418
-0.13122559
-0.13366699
-0.13671875
-0.14038086
-0.14373779
-0.14709473
-0.14984131
-0.15106201
-0.15106201
-0.14892578
-0.1449585
-0.13824463
-0.128479
-0.11566162
-0.099487305
-0.079345703
-0.054931641
-0.026550293
0.0067138672
0.044555664
0.086975098
0.13336182
0.18341064
0.23620605
0.29174805
0.34881592
0.40710449
0.46600342
0.52459717
0.58227539
0.63903809
0.69396973
0.74645996
0.79620361
0.84259033
0.88562012
0.92437744
0.9588623
0.98876953
1.0137939
1.0333252
1.0467529
1.0531616
1.0525513
1.0440063
1.0272217
1.0025024
0.96954346
0.92895508
0.88134766
0.82702637
0.76721191
0.70220947
0.63262939
0.55999756
0.48522949
0.41015625
0.33569336
0.2633667
0.19439697
0.12969971
0.070495605
0.01739502
-0.028991699
-0.068664551
-0.10131836
-0.12695312
-0.1461792
-0.15991211
-0.16815186
-0.17272949
-0.17364502
-0.17242432
-0.16937256
-0.16540527
-0.16052246
-0.15594482
-0.15136719
-0.14709473
-0.14373779
-0.14129639
-0.13946533
-0.1385498
-0.1385498
-0.13946533
-0.14129639
-0.14373779
-0.14678955
-0.15014648
-0.15319824
-0.15625
-0.15899658
-0.16143799
-0.16387939
-0.16571045
-0.1675415
-0.16937256
-0.17089844
-0.17211914
-0.17303467
-0.17333984
-0.17333984
-0.17333984
-0.17303467
-0.17303467
-0.17303467
-0.17333984
-0.17364502
-0.1739502
-0.17425537
-0.17456055
-0.17486572
-0.17547607
-0.17578125
-0.17608643
-0.1763916
-0.17669678
-0.17730713
-0.17730713
-0.1776123
-0.1776123
-0.17730713
-0.17669678
-0.17608643
-0.1751709
-0.1739502
-0.17272949
-0.17150879
-0.17028809
-0.16906738
-0.16784668
-0.16662598
-0.16540527
-0.16418457
-0.16296387
-0.16204834
-0.16143799
-0.16082764
-0.16052246
-0.16021729
-0.15991211
-0.15960693
-0.15991211
-0.15991211
-0.16021729
-0.16052246
-0.16052246
-0.16082764
-0.16082764
-0.16113281
-0.16113281
-0.16113281
-0.16113281
-0.16113281
-0.16113281
-0.16113281
-0.16082764
-0.16021729
-0.15960693
-0.15869141
-0.15777588
-0.15686035
-0.15594482
-0.1550293
-0.15411377
-0.15319824
-0.15197754
-0.15106201
-0.15014648
-0.14923096
-0.14831543
-0.14770508
-0.14709473
-0.14648438
-0.1461792
-0.14556885
-0.14526367
-0.14526367
-0.14526367
-0.14526367
-0.14556885
-0.14556885
-0.14556885
-0.14556885
-0.14526367
-0.1449585
-0.14434814
-0.14373779
-0.14282227
-0.14190674
-0.14068604
-0.13946533
-0.13824463
-0.13671875
-0.13519287
-0.13336182
-0.13153076
-0.12939453
-0.1272583
-0.12542725
-0.12359619
-0.12207031
-0.12084961
-0.11962891
-0.1184082
-0.11749268
-0.11627197
-0.11535645
-0.11444092
-0.11352539
-0.11260986
-0.11138916
-0.11016846
-0.10894775
-0.10742188
-0.105896
-0.10406494
-0.10223389
-0.10070801
-0.098876953
-0.097045898
-0.095214844
-0.093078613
-0.090637207
-0.088195801
-0.085449219
-0.082397461
-0.079345703
-0.075683594
-0.072021484
-0.068359375
-0.064697266
-0.061035156
-0.057678223
-0.054321289
-0.050964355
-0.047912598
-0.04486084
-0.041809082
-0.0390625
-0.03692627
-0.034790039
-0.032958984
-0.031738281
-0.030822754
-0.030212402
-0.029602051
-0.028686523
-0.028076172
-0.02746582
-0.026550293
-0.025939941
-0.02532959
-0.024414062
-0.023498535
-0.022277832
-0.020751953
-0.018920898
-0.017089844
-0.015258789
-0.013122559
-0.01159668
-0.009765625
-0.0082397461
-0.0067138672
-0.0054931641
-0.0039672852
-0.002746582
-0.0018310547
-0.00091552734
-0.00061035156
-0.00061035156
-0.0012207031
-0.0021362305
-0.0033569336
-0.0048828125
-0.0067138672
-0.0085449219
-0.010681152
-0.013122559
-0.015869141
-0.018615723
-0.021362305
-0.024108887
-0.026245117
-0.028381348
-0.030517578
-0.032348633
-0.034179688
-0.036315918
-0.038146973
-0.039978027
-0.042114258
-0.043945312
-0.046081543
-0.048217773
-0.050048828
-0.051879883
-0.053710938
-0.055541992
-0.057678223
-0.059509277
-0.061645508
-0.064086914
-0.06652832
-0.068664551
-0.070800781
-0.07232666
-0.073852539
-0.074768066
-0.075683594
-0.076293945
-0.077209473
-0.077514648
-0.077819824
-0.077819824
-0.077819824
-0.077819824
-0.077819824
-0.078125
-0.078430176
-0.078735352
-0.078735352
-0.078735352
-0.078735352
-0.078735352
-0.079040527
-0.079345703
-0.079956055
-0.080566406
-0.081481934
-0.082092285
-0.083007812
-0.083312988
-0.083312988
-0.083312988
-0.083312988
-0.083312988
-0.083007812
-0.082702637
-0.082702637
-0.082397461
-0.081787109
-0.081481934
-0.080871582
-0.080871582
-0.080871582
-0.080871582
-0.081176758
-0.081787109
-0.082092285
-0.083007812
-0.08392334
-0.084838867
-0.08605957
-0.087585449
-0.089111328
-0.090332031
-0.09185791
-0.092773438
-0.093688965
-0.093994141
-0.094299316
-0.094299316
-0.093688965
-0.093078613
-0.092468262
-0.091552734
-0.090942383
-0.090026855
-0.089111328
-0.087890625
-0.086669922
-0.085449219
-0.084533691
-0.083618164
-0.083312988
-0.083007812
-0.082702637
-0.082397461
-0.082397461
-0.082092285
-0.082092285
-0.081787109
-0.081787109
-0.081787109
-0.081787109
-0.081481934
-0.081176758
-0.080566406
-0.079650879
-0.078430176
-0.077209473
-0.076293945
-0.075378418
-0.074462891
-0.073242188
-0.07232666
-0.071411133
-0.070800781
-0.070495605
-0.070495605
-0.070495605
-0.070495605
-0.070800781
-0.071105957
-0.071411133
-0.071716309
-0.072021484
-0.072631836
-0.073242188
-0.073547363
-0.073547363
-0.073547363
-0.073547363
-0.073242188
-0.072937012
-0.072631836
-0.072021484
-0.071716309
-0.071105957
-0.070800781
-0.07019043
-0.069885254
-0.069885254
-0.069580078
-0.069580078
-0.069580078
-0.069580078
-0.069580078
-0.069580078
-0.069274902
-0.068969727
-0.068664551
-0.068359375
-0.067443848
-0.066833496
-0.065612793
-0.064697266
-0.063781738
-0.062561035
-0.061950684
-0.061035156
-0.060424805
-0.060119629
-0.059509277
-0.058898926
-0.05859375
-0.057983398
-0.057983398
-0.058288574
-0.05859375
-0.059204102
-0.059509277
-0.059814453
-0.060424805
-0.06072998
-0.061340332
-0.062255859
-0.063171387
-0.063781738
-0.064697266
-0.065307617
-0.065917969
-0.06652832
-0.067138672
-0.067443848
-0.067749023
-0.068359375
-0.068664551
-0.068969727
-0.069274902
-0.068969727
-0.068664551
-0.068054199
-0.067443848
-0.066833496
-0.06652832
-0.06652832
-0.06652832
-0.067138672
-0.067749023
-0.068359375
-0.068969727
-0.069885254
-0.070800781
-0.071411133
-0.07232666
-0.073242188
-0.073852539
-0.074462891
-0.075073242
-0.075378418
-0.075073242
-0.075073242
-0.074768066
-0.074157715
-0.073547363
-0.072937012
-0.07232666
-0.071716309
-0.071105957
-0.071105957
-0.071105957
-0.071411133
-0.071716309
-0.07232666
-0.072937012
-0.073547363
-0.074462891
-0.075683594
-0.076904297
-0.078125
-0.079040527
-0.079956055
-0.080566406
-0.080871582
-0.081176758
-0.081176758
-0.081176758
-0.081176758
-0.081176758
-0.080871582
-0.080566406
-0.08026123
-0.079650879
-0.079040527
-0.078430176
-0.077819824
-0.077514648
-0.077514648
-0.077819824
-0.078125
-0.078430176
-0.079040527
-0.079650879
-0.08026123
-0.081176758
-0.082092285
-0.083312988
-0.084533691
-0.085754395
-0.087280273
-0.088500977
-0.090026855
-0.090942383
-0.09185791
-0.092163086
-0.092163086
-0.09185791
-0.091552734
-0.090942383
-0.090637207
-0.090332031
-0.08972168
-0.089416504
-0.089416504
-0.089416504
-0.089416504
-0.08972168
-0.090332031
-0.091247559
-0.092163086
-0.093383789
-0.094604492
-0.095825195
-0.097045898
-0.097961426
-0.098571777
-0.098876953
-0.099182129
-0.098876953
-0.098266602
-0.097351074
-0.096130371
-0.094604492
-0.093078613
-0.091247559
-0.090026855
-0.088806152
-0.088195801
-0.087585449
-0.087585449
-0.087585449
-0.088195801
-0.089111328
-0.090026855
-0.091247559
-0.092468262
-0.093383789
-0.094299316
-0.094604492
-0.094604492
-0.094299316
-0.093383789
-0.092163086
-0.090332031
-0.087890625
-0.085144043
-0.082092285
-0.078125
-0.074157715
-0.069580078
-0.065002441
-0.060424805
-0.056152344
-0.051879883
-0.048217773
-0.044555664
-0.04119873
-0.038146973
-0.035400391
-0.03326416
-0.031433105
-0.030212402
-0.029602051
-0.028991699
-0.028381348
-0.028076172
-0.028076172
-0.028381348
-0.028686523
-0.029296875
-0.029602051
-0.029907227
-0.029907227
-0.029602051
-0.028991699
-0.027770996
-0.026550293
-0.025024414
-0.023193359
-0.02166748
-0.019836426
-0.018005371
-0.016174316
-0.014343262
-0.012207031
-0.010070801
-0.0076293945
-0.0048828125
-0.0024414062
0.00030517578
0.0024414062
0.0048828125
0.0067138672
0.0085449219
0.010681152
0.013122559
0.015563965
0.018005371
0.020446777
0.022277832
0.024108887
0.02532959
0.026550293
0.02746582
0.028076172
0.028076172
0.027770996
0.026550293
0.024719238
0.021972656
0.018920898
0.014953613
0.010375977
0.0054931641
0
-0.0061035156
-0.012817383
-0.01953125
-0.026855469
-0.034790039
-0.043029785
-0.051269531
-0.059509277
-0.067749023
-0.075073242
-0.082092285
-0.088195801
-0.093688965
-0.098266602
-0.10223389
-0.10559082
-0.1083374
-0.11016846
-0.11138916
-0.11230469
-0.11291504
-0.11352539
-0.11352539
-0.11352539
-0.11322021
-0.11291504
-0.11260986
-0.11260986
-0.11291504
-0.11322021
-0.11352539
-0.11413574
-0.11535645
-0.11627197
-0.11749268
-0.1184082
-0.11932373
-0.11962891
-0.11962891
-0.11932373
-0.11901855
-0.1184082
-0.11749268
-0.11657715
-0.11566162
-0.11474609
-0.11383057
-0.11322021
-0.11230469
-0.11169434
-0.11108398
-0.11016846
-0.10955811
-0.10925293
-0.10894775
-0.10894775
-0.10894775
-0.10894775
-0.10925293
-0.10925293
-0.10955811
-0.10986328
-0.11016846
-0.11108398
-0.11169434
-0.11291504
-0.11413574
-0.1159668
-0.11810303
-0.12054443
-0.12390137
-0.12786865
-0.13214111
-0.13671875
-0.14068604
-0.14373779
-0.14556885
-0.14587402
-0.14404297
-0.14007568
-0.13366699
-0.12420654
-0.11169434
-0.09552002
-0.075683594
-0.051879883
-0.023498535
0.0091552734
0.04699707
0.089111328
0.13549805
0.18493652
0.23773193
0.2923584
0.34851074
0.40588379
0.46386719
0.52154541
0.57922363
0.63598633
0.69122314
0.74462891
0.79528809
0.84228516
0.88592529
0.92529297
0.96038818
0.99090576
1.0162354
1.0357666
1.0491943
1.0559082
1.0549927
1.0461426
1.0290527
1.0037231
0.96984863
0.9286499
0.88043213
0.82580566
0.76538086
0.70037842
0.63079834
0.55847168
0.48370361
0.4083252
0.3338623
0.26184082
0.19317627
0.12939453
0.071411133
0.01953125
-0.025634766
-0.06439209
-0.096435547
-0.12207031
-0.14160156
-0.15563965
-0.16479492
-0.16967773
-0.17120361
-0.17028809
-0.16723633
-0.16296387
-0.15838623
-0.15350342
-0.14923096
-0.14526367
-0.14190674
-0.13916016
-0.13763428
-0.13702393
-0.1373291
-0.13824463
-0.13977051
-0.14190674
-0.14434814
-0.14709473
-0.15014648
-0.15319824
-0.15625
-0.15899658
-0.16174316
-0.16418457
-0.16601562
-0.1675415
-0.16845703
-0.16906738
-0.16906738
-0.16906738
-0.16876221
-0.16845703
-0.16784668
-0.16723633
-0.1663208
-0.16540527
-0.16448975
-0.16357422
-0.16265869
-0.16204834
-0.16174316
-0.16143799
-0.16113281
-0.16082764
-0.16113281
-0.16113281
-0.16174316
-0.16235352
-0.16296387
-0.16357422
-0.16418457
-0.16448975
-0.16448975
-0.16448975
-0.16418457
-0.16387939
-0.16387939
-0.16357422
-0.16326904
-0.16296387
-0.16265869
-0.16204834
-0.16143799
-0.16082764
-0.16021729
-0.15960693
-0.15899658
-0.15869141
-0.15869141
-0.15869141
-0.15869141
-0.15869141
-0.15869141
-0.15869141
-0.15869141
-0.15838623
-0.15808105
-0.1574707
-0.15716553
-0.15686035
-0.15655518
-0.15655518
-0.15655518
-0.15625
-0.15594482
-0.15563965
-0.15533447
-0.15472412
-0.15441895
-0.15411377
-0.15380859
-0.15350342
-0.15350342
-0.15350342
-0.15289307
-0.15228271
-0.15136719
-0.15014648
-0.14892578
-0.1473999
-0.1461792
-0.14465332
-0.14343262
-0.14251709
-0.14160156
-0.14068604
-0.13977051
-0.13916016
-0.13885498
-0.1385498
-0.1385498
-0.13885498
-0.13916016
-0.13946533
-0.13977051
-0.13977051
-0.13977051
-0.13946533
-0.13916016
-0.13885498
-0.13824463
-0.1373291
-0.1361084
-0.13458252
-0.13305664
-0.13153076
-0.12969971
-0.12817383
-0.12634277
-0.12481689
-0.12329102
-0.12176514
-0.12023926
-0.11901855
-0.11810303
-0.11749268
-0.11688232
-0.11627197
-0.11566162
-0.11474609
-0.11383057
-0.11260986
-0.11108398
-0.10955811
-0.10803223
-0.10620117
-0.10467529
-0.10284424
-0.10070801
-0.098876953
-0.096740723
-0.094604492
-0.092468262
-0.090026855
-0.087890625
-0.085449219
-0.082702637
-0.08026123
-0.077819824
-0.075378418
-0.072937012
-0.070495605
-0.068054199
-0.065612793
-0.063476562
-0.061645508
-0.059814453
-0.057678223
-0.055541992
-0.053405762
-0.051269531
-0.048828125
-0.046691895
-0.04486084
-0.043029785
-0.04119873
-0.0390625
-0.03692627
-0.034484863
-0.032348633
-0.029907227
-0.02746582
-0.025024414
-0.022888184
-0.020446777
-0.018615723
-0.016479492
-0.014953613
-0.013427734
-0.011901855
-0.010681152
-0.009765625
-0.0088500977
-0.0082397461
-0.0079345703
-0.0073242188
-0.0073242188
-0.0067138672
-0.0064086914
-0.0061035156
-0.0057983398
-0.0061035156
-0.0064086914
-0.0067138672
-0.0073242188
-0.0079345703
-0.0085449219
-0.0094604492
-0.010375977
-0.011291504
-0.012512207
-0.014038086
-0.015869141
-0.018005371
-0.020446777
-0.022888184
-0.02532959
-0.028076172
-0.030822754
-0.033569336
-0.036621094
-0.039367676
-0.042419434
-0.045166016
-0.047607422
-0.050354004
-0.052490234
-0.054931641
-0.056762695
-0.058898926
-0.060424805
-0.061950684
-0.063171387
-0.06439209
-0.065002441
-0.065612793
-0.066223145
-0.06652832
-0.067138672
-0.068054199
-0.069274902
-0.070495605
-0.072021484
-0.073547363
-0.075073242
-0.076904297
-0.079040527
-0.080871582
-0.082397461
-0.084228516
-0.085449219
-0.086364746
-0.087280273
-0.087585449
-0.087585449
-0.087280273
-0.086975098
-0.08605957
-0.085144043
-0.084228516
-0.082702637
-0.081481934
-0.079956055
-0.078430176
-0.077209473
-0.076293945
-0.075683594
-0.07598877
-0.076599121
-0.077819824
-0.079345703
-0.081176758
-0.083007812
-0.085144043
-0.086975098
-0.088806152
-0.090026855
-0.091247559
-0.092468262
-0.093383789
-0.093994141
-0.094604492
-0.094909668
-0.094909668
-0.094299316
-0.093383789
-0.092163086
-0.090942383
-0.089416504
-0.088195801
-0.086975098
-0.086364746
-0.085754395
-0.085754395
-0.08605957
-0.086364746
-0.086669922
-0.086975098
-0.087280273
-0.087585449
-0.088195801
-0.088806152
-0.089416504
-0.090026855
-0.090332031
-0.090637207
-0.090026855
-0.089416504
-0.088806152
-0.087890625
-0.086975098
-0.085754395
-0.084838867
-0.083618164
-0.082702637
-0.081787109
-0.081176758
-0.080566406
-0.079956055
-0.079345703
-0.078735352
-0.078430176
-0.078430176
-0.078430176
-0.078735352
-0.078735352
-0.079040527
-0.079040527
-0.079040527
-0.079040527
-0.078735352
-0.078735352
-0.078735352
-0.078430176
-0.078125
-0.077514648
-0.077209473
-0.076599121
-0.076293945
-0.07598877
-0.075683594
-0.075683594
-0.075683594
-0.07598877
-0.076293945
-0.076599121
-0.076904297
-0.077514648
-0.078125
-0.078735352
-0.079345703
-0.079956055
-0.08026123
-0.080871582
-0.081176758
-0.081787109
-0.082092285
-0.082702637
-0.083312988
-0.083618164
-0.08392334
-0.08392334
-0.084228516
-0.08392334
-0.083618164
-0.083312988
-0.083007812
-0.082702637
-0.082397461
-0.082092285
-0.081787109
-0.081481934
-0.081176758
-0.080871582
-0.08026123
-0.079956055
-0.079956055
-0.079650879
-0.079956055
-0.079956055
-0.08026123
-0.08026123
-0.080566406
-0.080871582
-0.080871582
-0.081176758
-0.081176758
-0.081176758
-0.081176758
-0.080871582
-0.08026123
-0.079956055
-0.079345703
-0.078430176
-0.077514648
-0.076599121
-0.075683594
-0.074768066
-0.074157715
-0.073852539
-0.073547363
-0.073547363
-0.073852539
-0.074462891
-0.074768066
-0.075683594
-0.076293945
-0.077209473
-0.077819824
-0.078735352
-0.079650879
-0.080566406
-0.081176758
-0.081787109
-0.082092285
-0.081787109
-0.081481934
-0.080566406
-0.079345703
-0.078430176
-0.077209473
-0.076293945
-0.075378418
-0.075073242
-0.074768066
-0.074768066
-0.075073242
-0.07598877
-0.077209473
-0.078735352
-0.080871582
-0.083312988
-0.08605957
-0.089111328
-0.09185791
-0.094299316
-0.096740723
-0.098571777
-0.10040283
-0.10192871
-0.10284424
-0.10314941
-0.10253906
-0.10162354
-0.10040283
-0.098571777
-0.096740723
-0.094909668
-0.092773438
-0.090637207
-0.088500977
-0.086364746
-0.084228516
-0.082702637
-0.081481934
-0.080871582
-0.080566406
-0.080566406
-0.081176758
-0.081787109
-0.082702637
-0.08392334
-0.085144043
-0.086364746
-0.087585449
-0.088806152
-0.08972168
-0.090637207
-0.091552734
-0.092163086
-0.092468262
-0.092773438
-0.092468262
-0.092163086
-0.091552734
-0.090332031
-0.089111328
-0.087585449
-0.08605957
-0.084533691
-0.083618164
-0.082702637
-0.082397461
-0.082092285
-0.082092285
-0.082092285
-0.082702637
-0.083312988
-0.084228516
-0.085144043
-0.086364746
-0.087585449
-0.088806152
-0.090026855
-0.090942383
-0.09185791
-0.092773438
-0.093078613
-0.093383789
-0.093078613
-0.092773438
-0.092163086
-0.091247559
-0.08972168
-0.088500977
-0.086669922
-0.085144043
-0.083312988
-0.081176758
-0.079040527
-0.076904297
-0.074768066
-0.072631836
-0.07019043
-0.067443848
-0.064697266
-0.061950684
-0.058898926
-0.055847168
-0.052490234
-0.049438477
-0.046386719
-0.043334961
-0.040893555
-0.0390625
-0.037536621
-0.036621094
-0.036315918
-0.036315918
-0.036315918
-0.036621094
-0.03692627
-0.037231445
-0.037536621
-0.037841797
-0.038452148
-0.038757324
-0.038757324
-0.038146973
-0.037231445
-0.035705566
-0.033569336
-0.030822754
-0.027770996
-0.024414062
-0.020751953
-0.017089844
-0.013427734
-0.010070801
-0.007019043
-0.0042724609
-0.0018310547
0.00030517578
0.0021362305
0.0036621094
0.0048828125
0.0061035156
0.0073242188
0.0082397461
0.0091552734
0.010375977
0.01159668
0.013427734
0.015258789
0.016784668
0.018615723
0.020141602
0.02166748
0.023193359
0.024414062
0.025634766
0.026550293
0.026550293
0.026245117
0.025024414
0.023193359
0.020141602
0.016174316
0.011291504
0.0057983398
-0.00030517578
-0.007019043
-0.01373291
-0.021057129
-0.028686523
-0.036621094
-0.044555664
-0.052490234
-0.060424805
-0.068054199
-0.075073242
-0.081787109
-0.087890625
-0.093383789
-0.098266602
-0.10284424
-0.10681152
-0.11016846
-0.11322021
-0.11535645
-0.11749268
-0.11932373
-0.12054443
-0.12176514
-0.12268066
-0.12298584
-0.12298584
-0.12268066
-0.12237549
-0.12207031
-0.12176514
-0.12115479
-0.12084961
-0.11993408
-0.11901855
-0.11779785
-0.11627197
-0.11474609
-0.11383057
-0.11260986
-0.11199951
-0.11138916
-0.11077881
-0.11016846
-0.10986328
-0.10986328
-0.11016846
-0.11108398
-0.11199951
-0.11322021
-0.11444092
-0.11566162
-0.1171875
-0.11901855
-0.12084961
-0.12298584
-0.12481689
-0.12664795
-0.12817383
-0.12969971
-0.13061523
-0.13153076
-0.13214111
-0.13244629
-0.13244629
-0.13244629
-0.13244629
-0.13214111
-0.13214111
-0.13183594
-0.13183594
-0.13244629
-0.13305664
-0.13458252
-0.13671875
-0.13946533
-0.14221191
-0.14465332
-0.14648438
-0.14709473
-0.1461792
-0.14373779
-0.13885498
-0.13183594
-0.12237549
-0.10955811
-0.093688965
-0.073852539
-0.050048828
-0.021972656
0.009765625
0.046081543
0.08605957
0.13000488
0.17669678
0.22613525
0.27740479
0.33050537
0.38482666
0.43945312
0.49377441
0.54718018
0.59906006
0.64880371
0.69610596
0.7409668
0.78308105
0.82214355
0.85754395
0.88928223
0.91674805
0.93994141
0.95733643
0.96893311
0.97351074
0.97045898
0.96008301
0.94207764
0.91644287
0.88409424
0.84533691
0.8001709
0.74951172
0.69335938
0.63262939
0.5682373
0.50109863
0.43212891
0.362854
0.29449463
0.22857666
0.1663208
0.10864258
0.055847168
0.0088500977
-0.032348633
-0.067443848
-0.096130371
-0.11871338
-0.13580322
-0.14862061
-0.15716553
-0.16235352
-0.1651001
-0.16571045
-0.16448975
-0.16204834
-0.15869141
-0.15533447
-0.15167236
-0.14862061
-0.14587402
-0.14373779
-0.14251709
-0.14160156
-0.14160156
-0.14190674
-0.14251709
-0.14343262
-0.1449585
-0.14648438
-0.14831543
-0.15014648
-0.15167236
-0.15319824
-0.1550293
-0.15655518
-0.15777588
-0.15899658
-0.15991211
-0.16082764
-0.16113281
-0.16143799
-0.16174316
-0.16143799
-0.16082764
-0.16021729
-0.15930176
-0.15838623
-0.1574707
-0.15655518
-0.15594482
-0.15533447
-0.15533447
-0.15533447
-0.15625
-0.15716553
-0.15869141
-0.16021729
-0.16174316
-0.16296387
-0.16387939
-0.1651001
-0.16571045
-0.16601562
-0.16601562
-0.16571045
-0.16479492
-0.16357422
-0.16174316
-0.15991211
-0.1574707
-0.1550293
-0.15258789
-0.15014648
-0.14770508
-0.14556885
-0.14404297
-0.14282227
-0.14251709
-0.14251709
-0.14343262
-0.1449585
-0.14648438
-0.14862061
-0.15106201
-0.15350342
-0.15625
-0.15869141
-0.16143799
-0.16387939
-0.16571045
-0.16784668
-0.16937256
-0.17089844
-0.17181396
-0.17242432
-0.17242432
-0.17211914
-0.17120361
-0.16967773
-0.16784668
-0.16571045
-0.16387939
-0.16174316
-0.15960693
-0.1574707
-0.15533447
-0.15350342
-0.15197754
-0.15045166
-0.14953613
-0.14862061
-0.14801025
-0.14770508
-0.14770508
-0.14801025
-0.14862061
-0.14953613
-0.15045166
-0.15167236
-0.15258789
-0.15380859
-0.15472412
-0.15533447
-0.15563965
-0.15563965
-0.15563965
-0.15533447
-0.1550293
-0.15472412
-0.15472412
-0.15441895
-0.15411377
-0.15380859
-0.15319824
-0.15289307
-0.15289307
-0.15289307
-0.15319824
-0.15350342
-0.15411377
-0.15411377
-0.15411377
-0.15411377
-0.15350342
-0.15289307
-0.15197754
-0.15075684
-0.14923096
-0.1473999
-0.14556885
-0.14343262
-0.14129639
-0.13946533
-0.13763428
-0.1361084
-0.13458252
-0.13305664
-0.13183594
-0.13061523
-0.12939453
-0.128479
-0.12817383
-0.12756348
-0.12756348
-0.12756348
-0.12756348
-0.1272583
-0.12695312
-0.12634277
-0.12542725
-0.12451172
-0.12298584
-0.12115479
-0.11932373
-0.1171875
-0.11505127
-0.11230469
-0.10955811
-0.10681152
-0.10375977
-0.10070801
-0.097351074
-0.093688965
-0.090332031
-0.086669922
-0.083312988
-0.079956055
-0.076904297
-0.073852539
-0.071411133
-0.068969727
-0.067138672
-0.065612793
-0.06439209
-0.063476562
-0.062866211
-0.062561035
-0.062255859
-0.062255859
-0.061950684
-0.061950684
-0.061645508
-0.06072998
-0.059814453
-0.05859375
-0.057373047
-0.055541992
-0.053100586
-0.050354004
-0.04699707
-0.043640137
-0.040588379
-0.037231445
-0.034179688
-0.03112793
-0.028686523
-0.026245117
-0.024414062
-0.023193359
-0.022277832
-0.02166748
-0.02166748
-0.022277832
-0.023193359
-0.024719238
-0.026245117
-0.028381348
-0.030212402
-0.032348633
-0.034484863
-0.036315918
-0.038146973
-0.039672852
-0.04119873
-0.042724609
-0.043945312
-0.04486084
-0.045471191
-0.046081543
-0.046691895
-0.04699707
-0.047607422
-0.048217773
-0.049133301
-0.050354004
-0.052185059
-0.054016113
-0.055847168
-0.057678223
-0.059814453
-0.061950684
-0.064086914
-0.066223145
-0.068664551
-0.070495605
-0.072021484
-0.073242188
-0.073852539
-0.073852539
-0.073852539
-0.073242188
-0.072021484
-0.070800781
-0.069274902
-0.067749023
-0.065917969
-0.06439209
-0.062561035
-0.061035156
-0.059814453
-0.058898926
-0.05859375
-0.058898926
-0.059814453
-0.061340332
-0.063171387
-0.065307617
-0.067443848
-0.069580078
-0.071411133
-0.072937012
-0.074462891
-0.075073242
-0.075378418
-0.075073242
-0.074462891
-0.073547363
-0.07232666
-0.070800781
-0.068664551
-0.066833496
-0.064697266
-0.062561035
-0.06072998
-0.059204102
-0.057983398
-0.057067871
-0.056762695
-0.056762695
-0.057373047
-0.058288574
-0.059509277
-0.06072998
-0.062255859
-0.063781738
-0.065002441
-0.066223145
-0.067443848
-0.068359375
-0.069274902
-0.069885254
-0.070495605
-0.070800781
-0.070800781
-0.070800781
-0.070495605
-0.07019043
-0.069580078
-0.069274902
-0.068664551
-0.068054199
-0.067443848
-0.06652832
-0.065917969
-0.065002441
-0.06439209
-0.063781738
-0.063476562
-0.063171387
-0.063171387
-0.063171387
-0.063476562
-0.063781738
-0.064086914
-0.064697266
-0.065307617
-0.065917969
-0.066223145
-0.066833496
-0.067749023
-0.068359375
-0.069274902
-0.069885254
-0.070495605
-0.070800781
-0.071105957
-0.071105957
-0.071411133
-0.071105957
-0.070800781
-0.070495605
-0.069885254
-0.069274902
-0.068969727
-0.068664551
-0.068359375
-0.068054199
-0.067443848
-0.06652832
-0.065917969
-0.065002441
-0.06439209
-0.063476562
-0.062866211
-0.062561035
-0.062255859
-0.062561035
-0.062561035
-0.062866211
-0.063171387
-0.063476562
-0.063476562
-0.063476562
-0.063476562
-0.063781738
-0.063781738
-0.064086914
-0.064086914
-0.06439209
-0.06439209
-0.065002441
-0.065307617
-0.065612793
-0.066223145
-0.066223145
-0.066223145
-0.066223145
-0.065917969
-0.065307617
-0.065002441
-0.065002441
-0.064697266
-0.064697266
-0.064697266
-0.064697266
-0.06439209
-0.06439209
-0.063781738
-0.063476562
-0.062561035
-0.061645508
-0.06072998
-0.059814453
-0.058898926
-0.058288574
-0.057983398
-0.057678223
-0.057067871
-0.05645752
