-0.015564	
-0.0177002	
-0.0189209	
-0.0177002	
-0.0140381	
-0.0106812	
-0.0106812	
-0.0125122	
-0.0137329	
-0.0128174	
-0.0119019	
-0.0115967	
-0.012207	
-0.0125122	
-0.0125122	
-0.0119019	
-0.0119019	
-0.0115967	
-0.012207	
-0.0128174	
-0.0137329	
-0.0152588	
-0.015564	
-0.0149536	
-0.0143433	
-0.0158691	
-0.0180054	
-0.0186157	
-0.0180054	
-0.0180054	
-0.0186157	
-0.0189209	
-0.017395	
-0.0152588	
-0.0152588	
-0.0180054	
-0.0210571	
-0.0231934	
-0.0222778	
-0.0189209	
-0.0161743	
-0.0140381	
-0.0152588	
-0.0170898	
-0.0189209	
-0.020752	
-0.0241089	
-0.0265503	
-0.0265503	
-0.0238037	
-0.0210571	
-0.0198364	
-0.0201416	
-0.0210571	
-0.020752	
-0.0201416	
-0.0186157	
-0.017395	
-0.0170898	
-0.0177002	
-0.0198364	
-0.0216675	
-0.022583	
-0.0216675	
-0.0177002	
-0.0146484	
-0.0149536	
-0.0183105	
-0.0210571	
-0.0213623	
-0.0198364	
-0.0192261	
-0.0180054	
-0.017395	
-0.0192261	
-0.0213623	
-0.0222778	
-0.0189209	
-0.0143433	
-0.0125122	
-0.0140381	
-0.0183105	
-0.0219727	
-0.0241089	
-0.0234985	
-0.0210571	
-0.0192261	
-0.0201416	
-0.0222778	
-0.0231934	
-0.020752	
-0.0164795	
-0.015564	
-0.017395	
-0.0189209	
-0.0186157	
-0.0170898	
-0.0170898	
-0.0167847	
-0.0167847	
-0.0164795	
-0.017395	
-0.0177002	
-0.0167847	
-0.0137329	
-0.0115967	
-0.0115967	
-0.0137329	
-0.0167847	
-0.0186157	
-0.0204468	
-0.0216675	
-0.0228882	
-0.0222778	
-0.0216675	
-0.0219727	
-0.0241089	
-0.0256348	
-0.0244141	
-0.0210571	
-0.0183105	
-0.0177002	
-0.017395	
-0.0177002	
-0.0177002	
-0.0177002	
-0.0170898	
-0.0170898	
-0.0161743	
-0.0177002	
-0.0183105	
-0.0192261	
-0.0198364	
-0.0204468	
-0.0213623	
-0.0216675	
-0.0198364	
-0.0167847	
-0.0140381	
-0.0115967	
-0.0112915	
-0.0128174	
-0.0143433	
-0.015564	
-0.0164795	
-0.0180054	
-0.0195313	
-0.0201416	
-0.0201416	
-0.0213623	
-0.0228882	
-0.0238037	
-0.0244141	
-0.0244141	
-0.0250244	
-0.0259399	
-0.0262451	
-0.0262451	
-0.0250244	
-0.0244141	
-0.0241089	
-0.0241089	
-0.0231934	
-0.0219727	
-0.0210571	
-0.020752	
-0.0198364	
-0.0183105	
-0.0170898	
-0.0170898	
-0.0164795	
-0.0152588	
-0.0137329	
-0.0140381	
-0.0152588	
-0.0149536	
-0.0137329	
-0.012207	
-0.012207	
-0.012207	
-0.0119019	
-0.0128174	
-0.015564	
-0.0189209	
-0.0201416	
-0.0189209	
-0.0177002	
-0.0170898	
-0.0177002	
-0.0189209	
-0.0189209	
-0.0177002	
-0.0170898	
-0.017395	
-0.0192261	
-0.0210571	
-0.020752	
-0.0180054	
-0.0149536	
-0.0137329	
-0.0149536	
-0.017395	
-0.0195313	
-0.0204468	
-0.0195313	
-0.0170898	
-0.0149536	
-0.0152588	
-0.0177002	
-0.0201416	
-0.0216675	
-0.0231934	
-0.0231934	
-0.0216675	
-0.0186157	
-0.015564	
-0.0137329	
-0.0125122	
-0.0119019	
-0.012207	
-0.0131226	
-0.0143433	
-0.0161743	
-0.0164795	
-0.0152588	
-0.0143433	
-0.0140381	
-0.0146484	
-0.015564	
-0.0161743	
-0.0149536	
-0.0119019	
-0.00915527	
-0.00854492	
-0.0106812	
-0.0131226	
-0.015564	
-0.0177002	
-0.0183105	
-0.0170898	
-0.0152588	
-0.0137329	
-0.0134277	
-0.0143433	
-0.0146484	
-0.0146484	
-0.0131226	
-0.0115967	
-0.0115967	
-0.012207	
-0.0137329	
-0.015564	
-0.0164795	
-0.0167847	
-0.0161743	
-0.015564	
-0.0149536	
-0.0149536	
-0.0158691	
-0.017395	
-0.0186157	
-0.0189209	
-0.0192261	
-0.0201416	
-0.020752	
-0.020752	
-0.0189209	
-0.0167847	
-0.0161743	
-0.0164795	
-0.0164795	
-0.0161743	
-0.0161743	
-0.017395	
-0.0183105	
-0.017395	
-0.0180054	
-0.0201416	
-0.0238037	
-0.0262451	
-0.0265503	
-0.0244141	
-0.0219727	
-0.0198364	
-0.0195313	
-0.0201416	
-0.0198364	
-0.0186157	
-0.0170898	
-0.0177002	
-0.020752	
-0.0231934	
-0.0238037	
-0.0219727	
-0.0201416	
-0.0195313	
-0.0198364	
-0.0195313	
-0.0186157	
-0.0183105	
-0.0192261	
-0.0213623	
-0.0238037	
-0.0247192	
-0.0234985	
-0.020752	
-0.0195313	
-0.020752	
-0.0219727	
-0.0222778	
-0.0210571	
-0.0192261	
-0.0189209	
-0.0180054	
-0.017395	
-0.0170898	
-0.0183105	
-0.0177002	
-0.0146484	
-0.0109863	
-0.00946045	
-0.0109863	
-0.0128174	
-0.0128174	
-0.012207	
-0.0119019	
-0.0119019	
-0.0134277	
-0.0146484	
-0.0152588	
-0.0143433	
-0.0140381	
-0.0137329	
-0.012207	
-0.00976563	
-0.00823975	
-0.00946045	
-0.0128174	
-0.015564	
-0.017395	
-0.0170898	
-0.017395	
-0.0189209	
-0.020752	
-0.0216675	
-0.0213623	
-0.0195313	
-0.0183105	
-0.0183105	
-0.020752	
-0.0228882	
-0.022583	
-0.020752	
-0.0195313	
-0.0198364	
-0.0210571	
-0.0222778	
-0.022583	
-0.0204468	
-0.0167847	
-0.0140381	
-0.0119019	
-0.0112915	
-0.0119019	
-0.0149536	
-0.0180054	
-0.0195313	
-0.0180054	
-0.015564	
-0.0128174	
-0.0109863	
-0.0119019	
-0.0143433	
-0.0170898	
-0.0177002	
-0.0167847	
-0.0161743	
-0.0170898	
-0.0170898	
-0.0161743	
-0.0158691	
-0.0164795	
-0.0180054	
-0.0183105	
-0.0158691	
-0.0119019	
-0.00793457	
-0.00579834	
-0.00579834	
-0.0088501	
-0.0128174	
-0.0152588	
-0.0152588	
-0.0134277	
-0.0109863	
-0.00823975	
-0.00579834	
-0.00335693	
-0.00335693	
-0.00396729	
-0.00518799	
-0.00518799	
-0.00427246	
-0.00274658	
-0.00152588	
-0.00213623	
-0.00366211	
-0.00518799	
-0.00671387	
-0.0088501	
-0.0109863	
-0.0125122	
-0.0131226	
-0.0137329	
-0.0143433	
-0.0146484	
-0.0137329	
-0.012207	
-0.0106812	
-0.0109863	
-0.0128174	
-0.0146484	
-0.0149536	
-0.0146484	
-0.0152588	
-0.0161743	
-0.0161743	
-0.0158691	
-0.0158691	
-0.0161743	
-0.015564	
-0.0149536	
-0.0158691	
-0.0180054	
-0.0198364	
-0.0204468	
-0.0201416	
-0.0192261	
-0.0186157	
-0.0183105	
-0.0192261	
-0.0201416	
-0.020752	
-0.0216675	
-0.0216675	
-0.020752	
-0.0183105	
-0.0152588	
-0.0128174	
-0.0119019	
-0.0128174	
-0.0146484	
-0.0161743	
-0.015564	
-0.0137329	
-0.0125122	
-0.0125122	
-0.0140381	
-0.0140381	
-0.0137329	
-0.0137329	
-0.0158691	
-0.0186157	
-0.0204468	
-0.0198364	
-0.0183105	
-0.0164795	
-0.0164795	
-0.0201416	
-0.0244141	
-0.0274658	
-0.0265503	
-0.0238037	
-0.0198364	
-0.0177002	
-0.017395	
-0.0186157	
-0.0204468	
-0.0204468	
-0.0204468	
-0.0198364	
-0.0198364	
-0.0195313	
-0.0204468	
-0.0213623	
-0.020752	
-0.0183105	
-0.015564	
-0.0140381	
-0.0149536	
-0.0167847	
-0.0192261	
-0.0204468	
-0.0195313	
-0.0180054	
-0.0164795	
-0.0161743	
-0.0167847	
-0.0180054	
-0.0189209	
-0.0192261	
-0.0180054	
-0.0161743	
-0.0152588	
-0.0161743	
-0.0177002	
-0.0183105	
-0.0170898	
-0.015564	
-0.0143433	
-0.0149536	
-0.0164795	
-0.017395	
-0.0167847	
-0.0161743	
-0.0161743	
-0.017395	
-0.0177002	
-0.0161743	
-0.0137329	
-0.0125122	
-0.0137329	
-0.0161743	
-0.0186157	
-0.0195313	
-0.0186157	
-0.0177002	
-0.0170898	
-0.0180054	
-0.0186157	
-0.0177002	
-0.0167847	
-0.0161743	
-0.0167847	
-0.0177002	
-0.0167847	
-0.0158691	
-0.0146484	
-0.0125122	
-0.00976563	
-0.00732422	
-0.00762939	
-0.0100708	
-0.0112915	
-0.0106812	
-0.0088501	
-0.00854492	
-0.00915527	
-0.00946045	
-0.00946045	
-0.010376	
-0.0115967	
-0.012207	
-0.012207	
-0.0112915	
-0.010376	
-0.00976563	
-0.00976563	
-0.010376	
-0.0109863	
-0.0100708	
-0.00946045	
-0.0106812	
-0.0115967	
-0.0125122	
-0.012207	
-0.012207	
-0.0137329	
-0.0149536	
-0.0146484	
-0.0131226	
-0.0115967	
-0.010376	
-0.0088501	
-0.00854492	
-0.00823975	
-0.0088501	
-0.010376	
-0.0112915	
-0.0125122	
-0.0140381	
-0.015564	
-0.0161743	
-0.0149536	
-0.012207	
-0.00976563	
-0.00793457	
-0.00823975	
-0.010376	
-0.0134277	
-0.0149536	
-0.0137329	
-0.0131226	
-0.0143433	
-0.0161743	
-0.0167847	
-0.015564	
-0.0137329	
-0.0131226	
-0.012207	
-0.0119019	
-0.0115967	
-0.0112915	
-0.0115967	
-0.0112915	
-0.0100708	
-0.00823975	
-0.00793457	
-0.00976563	
-0.0119019	
-0.0115967	
-0.0109863	
-0.0106812	
-0.0115967	
-0.0125122	
-0.0131226	
-0.0137329	
-0.0137329	
-0.0140381	
-0.0146484	
-0.0143433	
-0.0131226	
-0.0119019	
-0.012207	
-0.0125122	
-0.012207	
-0.0106812	
-0.00946045	
-0.00946045	
-0.0112915	
-0.0137329	
-0.0134277	
-0.0119019	
-0.0109863	
-0.0115967	
-0.0125122	
-0.012207	
-0.0106812	
-0.00976563	
-0.00854492	
-0.00793457	
-0.00793457	
-0.0088501	
-0.0100708	
-0.0109863	
-0.0109863	
-0.010376	
-0.0100708	
-0.0088501	
-0.00732422	
-0.00549316	
-0.00488281	
-0.00640869	
-0.0100708	
-0.0137329	
-0.0149536	
-0.0131226	
-0.010376	
-0.00915527	
-0.00823975	
-0.00701904	
-0.00488281	
-0.00427246	
-0.00640869	
-0.0088501	
-0.00946045	
-0.00823975	
-0.00549316	
-0.00366211	
-0.00335693	
-0.00427246	
-0.00457764	
-0.00396729	
-0.00305176	
-0.00213623	
-0.00305176	
-0.00396729	
-0.00579834	
-0.00671387	
-0.00671387	
-0.00518799	
-0.00335693	
-0.00335693	
-0.00457764	
-0.00518799	
-0.00457764	
-0.00244141	
-0.00152588	
-0.00213623	
-0.00244141	
-0.00274658	
-0.00366211	
-0.00488281	
-0.00701904	
-0.00915527	
-0.0112915	
-0.0119019	
-0.00976563	
-0.00762939	
-0.00671387	
-0.00701904	
-0.00762939	
-0.00732422	
-0.00610352	
-0.00457764	
-0.00427246	
-0.00457764	
-0.00457764	
-0.00366211	
-0.00244141	
-0.00335693	
-0.00549316	
-0.00732422	
-0.00793457	
-0.00579834	
-0.00366211	
-0.00213623	
-0.00274658	
-0.00427246	
-0.00488281	
-0.00549316	
-0.00671387	
-0.00732422	
-0.00793457	
-0.00762939	
-0.00762939	
-0.00915527	
-0.010376	
-0.0112915	
-0.0112915	
-0.00976563	
-0.00671387	
-0.00335693	
-0.00305176	
-0.00396729	
-0.00518799	
-0.00457764	
-0.00335693	
-0.00213623	
-0.000610352	
-0.000305176	
-0.000305176	
-0.00152588	
-0.00305176	
-0.00396729	
-0.00366211	
-0.00183105	
-0.000305176	
-0.000610352	
-0.00183105	
-0.00183105	
-0.0012207	
0	
0.00152588	
0.00274658	
0.00305176	
0.00152588	
-0.000305176	
-0.000915527	
-0.0012207	
-0.00274658	
-0.00488281	
-0.00610352	
-0.00610352	
-0.00610352	
-0.00640869	
-0.00640869	
-0.00549316	
-0.00427246	
-0.00335693	
-0.00244141	
-0.00183105	
-0.00244141	
-0.00335693	
-0.00579834	
-0.0088501	
-0.0106812	
-0.0112915	
-0.0088501	
-0.00701904	
-0.00549316	
-0.00640869	
-0.00823975	
-0.00976563	
-0.00854492	
-0.00671387	
-0.00579834	
-0.00640869	
-0.00762939	
-0.00915527	
-0.0100708	
-0.0106812	
-0.012207	
-0.0128174	
-0.0128174	
-0.0119019	
-0.0112915	
-0.0119019	
-0.0125122	
-0.0125122	
-0.0109863	
-0.0088501	
-0.00793457	
-0.00793457	
-0.00854492	
-0.00946045	
-0.0100708	
-0.0106812	
-0.0106812	
-0.00946045	
-0.00732422	
-0.00518799	
-0.00366211	
-0.00793457	
-0.0213623	
-0.045166	
-0.0762939	
-0.108948	
-0.141602	
-0.175171	
-0.209961	
-0.245972	
-0.282288	
-0.318909	
-0.354004	
-0.387268	
-0.41626	
-0.441589	
-0.462646	
-0.479431	
-0.489197	
-0.490723	
-0.486145	
-0.480652	
-0.4776	
-0.47699	
-0.477295	
-0.4776	
-0.4776	
-0.477905	
-0.4776	
-0.476685	
-0.475159	
-0.473328	
-0.472717	
-0.472107	
-0.471802	
-0.469971	
-0.467529	
-0.465088	
-0.464783	
-0.465393	
-0.465698	
-0.464783	
-0.462952	
-0.462036	
-0.460815	
-0.458984	
-0.457764	
-0.456238	
-0.4422	
-0.411682	
-0.366516	
-0.316772	
-0.272827	
-0.231018	
-0.189209	
-0.144653	
-0.100098	
-0.0567627	
-0.0186157	
0.0109863	
0.0292969	
0.0354004	
0.0335693	
0.0286865	
0.0250244	
0.0238037	
0.0253296	
0.0280762	
0.0311279	
0.032959	
0.0320435	
0.0292969	
0.0250244	
0.0222778	
0.0216675	
0.0216675	
0.0222778	
0.022583	
0.0238037	
0.0253296	
0.0265503	
0.0268555	
0.0265503	
0.0265503	
0.0262451	
0.0256348	
0.0247192	
0.0247192	
0.0253296	
0.0247192	
0.0219727	
0.0183105	
0.0164795	
0.015564	
0.0149536	
0.0143433	
0.0143433	
0.0146484	
0.0146484	
0.0128174	
0.0119019	
0.0125122	
0.0140381	
0.0158691	
0.0164795	
0.0161743	
0.0146484	
0.0125122	
0.0128174	
0.015564	
0.0204468	
0.0247192	
0.0259399	
0.0247192	
0.0234985	
0.0231934	
0.0231934	
0.0222778	
0.020752	
0.0204468	
0.0213623	
0.0219727	
0.0222778	
0.0213623	
0.0198364	
0.0186157	
0.0177002	
0.0170898	
0.0170898	
0.0164795	
0.0158691	
0.015564	
0.015564	
0.0158691	
0.0161743	
0.0164795	
0.0164795	
0.0158691	
0.0152588	
0.0149536	
0.0152588	
0.0167847	
0.0180054	
0.0186157	
0.0192261	
0.0204468	
0.0219727	
0.0241089	
0.0253296	
0.0259399	
0.0256348	
0.0244141	
0.0234985	
0.0222778	
0.0216675	
0.0213623	
0.0213623	
0.0219727	
0.0228882	
0.0238037	
0.0231934	
0.0210571	
0.0192261	
0.0192261	
0.0210571	
0.0234985	
0.0256348	
0.0262451	
0.0256348	
0.0241089	
0.0241089	
0.0250244	
0.0253296	
0.0234985	
0.020752	
0.0195313	
0.0204468	
0.0210571	
0.0216675	
0.0222778	
0.0241089	
0.0250244	
0.0250244	
0.0253296	
0.0259399	
0.0268555	
0.027771	
0.0280762	
0.0286865	
0.0280762	
0.0268555	
0.0256348	
0.0250244	
0.0259399	
0.0271606	
0.027771	
0.027771	
0.0271606	
0.0253296	
0.0234985	
0.0219727	
0.0216675	
0.0222778	
0.0216675	
0.0201416	
0.0192261	
0.0189209	
0.0180054	
0.0167847	
0.0170898	
0.0186157	
0.020752	
0.022583	
0.0228882	
0.0231934	
0.0231934	
0.0238037	
0.0250244	
0.0265503	
0.0274658	
0.0283813	
0.0286865	
0.0286865	
0.0286865	
0.0283813	
0.0280762	
0.0271606	
0.027771	
0.0283813	
0.0283813	
0.0265503	
0.0241089	
0.0228882	
0.0210571	
0.0189209	
0.0167847	
0.0152588	
0.0143433	
0.0137329	
0.0137329	
0.0137329	
0.0140381	
0.0146484	
0.015564	
0.0177002	
0.0192261	
0.0201416	
0.0213623	
0.0222778	
0.0228882	
0.0219727	
0.020752	
0.0189209	
0.0167847	
0.0143433	
0.0137329	
0.0137329	
0.0149536	
0.0158691	
0.0167847	
0.0164795	
0.0134277	
0.0106812	
0.0112915	
0.0143433	
0.0186157	
0.020752	
0.0213623	
0.0213623	
0.0201416	
0.0189209	
0.0189209	
0.0192261	
0.0198364	
0.0204468	
0.0216675	
0.0241089	
0.0262451	
0.0268555	
0.0265503	
0.0256348	
0.0247192	
0.0244141	
0.0244141	
0.0250244	
0.0253296	
0.0253296	
0.0250244	
0.0241089	
0.0213623	
0.0189209	
0.0180054	
0.0198364	
0.0213623	
0.0210571	
0.0204468	
0.0198364	
0.0195313	
0.0192261	
0.0177002	
0.0161743	
0.0140381	
0.0134277	
0.0140381	
0.0183105	
0.032959	
0.0610352	
0.100708	
0.142212	
0.180359	
0.217896	
0.257568	
0.298767	
0.339355	
0.379028	
0.417786	
0.453796	
0.486145	
0.516357	
0.545654	
0.571594	
0.592041	
0.6073	
0.61676	
0.619507	
0.614624	
0.60791	
0.604553	
0.603638	
0.602417	
0.59906	
0.596008	
0.595093	
0.595703	
0.595398	
0.592651	
0.589905	
0.588684	
0.589294	
0.589294	
0.588074	
0.585632	
0.583496	
0.58197	
0.58136	
0.581055	
0.58136	
0.581055	
0.581055	
0.581055	
0.58075	
0.58075	
0.58136	
0.58075	
0.579834	
0.578308	
0.576782	
0.577087	
0.576477	
0.575256	
0.57312	
0.566711	
0.548096	
0.514221	
0.469666	
0.421448	
0.37384	
0.325012	
0.274353	
0.221252	
0.167236	
0.114441	
0.065918	
0.0244141	
-0.0109863	
-0.0393677	
-0.0585938	
-0.0665283	
-0.0653076	
-0.0604248	
-0.0549316	
-0.0527954	
-0.0549316	
-0.0588989	
-0.0634766	
-0.0650024	
-0.0646973	
-0.0640869	
-0.062561	
-0.0619507	
-0.0622559	
-0.062561	
-0.0616455	
-0.0604248	
-0.0598145	
-0.0601196	
-0.0610352	
-0.0622559	
-0.0643921	
-0.065918	
-0.0579834	
-0.0363159	
-0.0088501	
0.0119019	
0.0177002	
0.0140381	
0.00915527	
0.00671387	
0.00549316	
0.00518799	
0.00610352	
0.00701904	
0.00854492	
0.00915527	
0.00854492	
0.00549316	
0.00274658	
0.00152588	
0.00244141	
0.00335693	
0.00335693	
0.00244141	
0.00274658	
0.00274658	
0.00244141	
0.00183105	
0.00152588	
0.00183105	
0.00244141	
0.00183105	
0.000610352	
-0.000305176	
-0.000610352	
-0.000915527	
-0.00244141	
-0.00396729	
-0.00549316	
-0.00671387	
-0.00671387	
-0.00701904	
-0.00610352	
-0.00518799	
-0.00427246	
-0.00244141	
-0.00183105	
-0.0012207	
-0.000305176	
0.0012207	
0.00244141	
0.00305176	
0.00335693	
0.00335693	
0.00183105	
0	
-0.000305176	
0.0012207	
0.00335693	
0.00427246	
0.00427246	
0.00396729	
0.00305176	
0.000610352	
-0.00152588	
-0.00183105	
-0.0012207	
-0.000915527	
-0.00183105	
-0.00305176	
-0.00366211	
-0.00244141	
-0.000610352	
0.0012207	
0.0012207	
-0.0012207	
-0.00366211	
-0.00518799	
-0.00549316	
-0.00518799	
-0.00427246	
-0.00366211	
-0.00396729	
-0.00579834	
-0.00823975	
-0.010376	
-0.0112915	
-0.0115967	
-0.012207	
-0.0119019	
-0.0109863	
-0.00854492	
-0.00549316	
-0.00274658	
-0.0012207	
-0.00152588	
-0.00274658	
-0.00274658	
-0.00213623	
-0.00396729	
-0.00946045	
-0.015564	
-0.0180054	
-0.0158691	
-0.012207	
-0.0109863	
-0.0115967	
-0.0125122	
-0.012207	
-0.0115967	
-0.0109863	
-0.0109863	
-0.0134277	
-0.0167847	
-0.0186157	
-0.0192261	
-0.0189209	
-0.0183105	
-0.0183105	
-0.0192261	
-0.0219727	
-0.0259399	
-0.0292969	
-0.0308228	
-0.0308228	
-0.0296021	
-0.0274658	
-0.0256348	
-0.0256348	
-0.0274658	
-0.0289917	
-0.0286865	
-0.0265503	
-0.0244141	
-0.0231934	
-0.0231934	
-0.022583	
-0.020752	
-0.0183105	
-0.0158691	
-0.0152588	
-0.0158691	
-0.0180054	
-0.0192261	
-0.0192261	
-0.0186157	
-0.0189209	
-0.0201416	
-0.0204468	
-0.020752	
-0.020752	
-0.0204468	
-0.0201416	
-0.0204468	
-0.0210571	
-0.0222778	
-0.0231934	
-0.0241089	
-0.0244141	
-0.0238037	
-0.0231934	
-0.0234985	
-0.0247192	
-0.0265503	
-0.0271606	
-0.0283813	
-0.0292969	
-0.0292969	
-0.0274658	
-0.0268555	
-0.0265503	
-0.0268555	
-0.0262451	
-0.0250244	
-0.0247192	
-0.0256348	
-0.027771	
-0.0296021	
-0.0305176	
-0.0292969	
-0.0274658	
-0.0265503	
-0.0265503	
-0.0268555	
-0.0271606	
-0.027771	
-0.0292969	
-0.0299072	
-0.0302124	
-0.0311279	
-0.0311279	
-0.0311279	
-0.0302124	
-0.0289917	
-0.0286865	
-0.027771	
-0.0274658	
-0.0274658	
-0.027771	
-0.0289917	
-0.0299072	
-0.0286865	
-0.0271606	
-0.0265503	
-0.0268555	
-0.0283813	
-0.0289917	
-0.0296021	
-0.0308228	
-0.0317383	
-0.0317383	
-0.0320435	
-0.0323486	
-0.0314331	
-0.0302124	
-0.027771	
-0.0265503	
-0.0262451	
-0.0256348	
-0.0241089	
-0.0228882	
-0.0234985	
-0.0253296	
-0.0268555	
-0.027771	
-0.027771	
-0.0286865	
-0.0302124	
-0.0308228	
-0.0314331	
-0.0314331	
-0.0311279	
-0.0292969	
-0.0268555	
-0.0259399	
-0.0268555	
-0.0289917	
-0.0299072	
-0.0289917	
-0.0262451	
-0.0238037	
-0.0228882	
-0.0241089	
-0.0259399	
-0.0259399	
-0.0250244	
-0.0231934	
-0.0219727	
-0.0213623	
-0.0216675	
-0.0234985	
-0.0256348	
-0.0268555	
-0.0265503	
-0.0256348	
-0.0231934	
-0.0228882	
-0.0231934	
-0.0247192	
-0.0247192	
-0.0238037	
-0.0228882	
-0.0231934	
-0.0228882	
-0.0216675	
-0.0198364	
-0.0189209	
-0.0201416	
-0.022583	
-0.0253296	
-0.0268555	
-0.0274658	
-0.027771	
-0.0274658	
-0.0271606	
-0.0265503	
-0.0265503	
-0.0271606	
-0.0283813	
-0.0286865	
-0.0292969	
-0.0299072	
-0.0317383	
-0.0332642	
-0.0332642	
-0.0317383	
-0.0286865	
-0.0253296	
-0.0234985	
-0.0228882	
-0.0238037	
-0.0244141	
-0.0250244	
-0.0256348	
-0.0262451	
-0.0268555	
-0.0280762	
-0.0280762	
-0.0274658	
-0.0262451	
-0.0250244	
-0.0250244	
-0.0265503	
-0.0296021	
-0.0320435	
-0.0320435	
-0.0302124	
-0.0280762	
-0.0265503	
-0.0244141	
-0.0228882	
-0.0216675	
-0.0234985	
-0.0265503	
-0.0283813	
-0.0280762	
-0.0283813	
-0.0299072	
-0.0320435	
-0.0335693	
-0.0335693	
-0.0344849	
-0.0350952	
-0.0354004	
-0.0357056	
-0.0360107	
-0.0369263	
-0.038147	
-0.038147	
-0.0372314	
-0.0366211	
-0.0363159	
-0.0372314	
-0.0378418	
-0.0372314	
-0.0360107	
-0.0350952	
-0.0341797	
-0.0338745	
-0.0344849	
-0.0357056	
-0.0372314	
-0.0372314	
-0.0363159	
-0.0344849	
-0.0332642	
-0.0326538	
-0.0338745	
-0.0366211	
-0.0387573	
-0.0390625	
-0.0363159	
-0.0332642	
-0.0320435	
-0.0317383	
-0.0311279	
-0.0286865	
-0.0265503	
-0.0253296	
-0.0262451	
-0.0271606	
-0.0283813	
-0.0299072	
-0.0320435	
-0.032959	
-0.0323486	
-0.0314331	
-0.0296021	
-0.0280762	
-0.0262451	
-0.0250244	
-0.0247192	
-0.0253296	
-0.0250244	
-0.0244141	
-0.0244141	
-0.0262451	
-0.0283813	
-0.0302124	
-0.0308228	
-0.0311279	
-0.0317383	
-0.0317383	
-0.0311279	
-0.0354004	
-0.0479126	
-0.0695801	
-0.0973511	
-0.126038	
-0.155334	
-0.184937	
-0.214233	
-0.244141	
-0.275269	
-0.305786	
-0.330811	
-0.34668	
-0.352478	
-0.351563	
-0.349426	
-0.347595	
-0.34729	
-0.34668	
-0.346069	
-0.346985	
-0.348511	
-0.351257	
-0.354309	
-0.35553	
-0.353394	
-0.349426	
-0.346069	
-0.345459	
-0.345764	
-0.344238	
-0.341492	
-0.344543	
-0.357056	
-0.379028	
-0.405273	
-0.430298	
-0.455322	
-0.4776	
-0.492554	
-0.498352	
-0.496521	
-0.491333	
-0.487061	
-0.484924	
-0.48584	
-0.487671	
-0.489502	
-0.490112	
-0.490112	
-0.490112	
-0.489197	
-0.487366	
-0.484619	
-0.481567	
-0.479431	
-0.477905	
-0.477295	
-0.4776	
-0.476685	
-0.474243	
-0.471802	
-0.470276	
-0.46936	
-0.470276	
-0.475159	
-0.484314	
-0.49469	
-0.503235	
-0.509338	
-0.514221	
-0.516663	
-0.516052	
-0.51239	
-0.508118	
-0.505676	
-0.504761	
-0.505371	
-0.506897	
-0.508423	
-0.508728	
-0.507507	
-0.505676	
-0.506592	
-0.509033	
-0.496521	
-0.462036	
-0.410461	
-0.35675	
-0.312805	
-0.274048	
-0.235291	
-0.193176	
-0.148315	
-0.102539	
-0.0601196	
-0.022583	
0.00854492	
0.0308228	
0.0439453	
0.0494385	
0.0491333	
0.0469971	
0.0457764	
0.0463867	
0.0494385	
0.0506592	
0.0488281	
0.0460815	
0.0439453	
0.043335	
0.0436401	
0.0439453	
0.043335	
0.0415039	
0.039978	
0.0393677	
0.0384521	
0.0384521	
0.0396729	
0.0436401	
0.0473022	
0.0479126	
0.045166	
0.0418091	
0.0393677	
0.0387573	
0.0390625	
0.0393677	
0.0390625	
0.0387573	
0.0387573	
0.0396729	
0.0393677	
0.0378418	
0.0366211	
0.0369263	
0.0378418	
0.0387573	
0.0384521	
0.0390625	
0.0402832	
0.0421143	
0.0427246	
0.0427246	
0.0418091	
0.0405884	
0.0393677	
0.0369263	
0.0357056	
0.0350952	
0.0357056	
0.0363159	
0.0366211	
0.0344849	
0.0326538	
0.0320435	
0.0317383	
0.0317383	
0.0320435	
0.0323486	
0.0341797	
0.0344849	
0.0341797	
0.0341797	
0.0335693	
0.032959	
0.0320435	
0.0317383	
0.0332642	
0.0360107	
0.0375366	
0.0372314	
0.0354004	
0.03479	
0.03479	
0.0354004	
0.0357056	
0.0357056	
0.0354004	
0.0344849	
0.0332642	
0.0323486	
0.032959	
0.0341797	
0.0338745	
0.032959	
0.0317383	
0.0320435	
0.0335693	
0.0344849	
0.0350952	
0.0341797	
0.032959	
0.0299072	
0.0280762	
0.027771	
0.0280762	
0.0280762	
0.0271606	
0.027771	
0.0299072	
0.0317383	
0.0317383	
0.0305176	
0.0289917	
0.027771	
0.0262451	
0.0244141	
0.0238037	
0.0231934	
0.0241089	
0.0265503	
0.0296021	
0.0320435	
0.0314331	
0.0280762	
0.0256348	
0.0250244	
0.0265503	
0.0283813	
0.0289917	
0.0289917	
0.0299072	
0.0314331	
0.032959	
0.0338745	
0.0338745	
0.032959	
0.0338745	
0.0366211	
0.0405884	
0.0418091	
0.0402832	
0.038147	
0.0372314	
0.0369263	
0.03479	
0.0323486	
0.0314331	
0.0323486	
0.0335693	
0.0326538	
0.0308228	
0.0299072	
0.0308228	
0.0326538	
0.0338745	
0.0332642	
0.0314331	
0.0283813	
0.0256348	
0.0238037	
0.0241089	
0.0250244	
0.0256348	
0.0259399	
0.0247192	
0.0228882	
0.0213623	
0.0210571	
0.0222778	
0.0253296	
0.0280762	
0.0296021	
0.0292969	
0.0280762	
0.027771	
0.0274658	
0.0274658	
0.027771	
0.0283813	
0.0286865	
0.0283813	
0.0280762	
0.0283813	
0.0289917	
0.0296021	
0.0292969	
0.0280762	
0.0268555	
0.0271606	
0.0274658	
0.0280762	
0.0274658	
0.0250244	
0.0283813	
0.0445557	
0.0753784	
0.116577	
0.159302	
0.200195	
0.240784	
0.280457	
0.320435	
0.360413	
0.399475	
0.436401	
0.471191	
0.50354	
0.531921	
0.552979	
0.566406	
0.576477	
0.587463	
0.598755	
0.603638	
0.600586	
0.593872	
0.588989	
0.588989	
0.591431	
0.592957	
0.591736	
0.588684	
0.585327	
0.582886	
0.58075	
0.578308	
0.578308	
0.579224	
0.58075	
0.580139	
0.576172	
0.571899	
0.568542	
0.566711	
0.566101	
0.566101	
0.566711	
0.567017	
0.566406	
0.565491	
0.56427	
0.562439	
0.559998	
0.557251	
0.555115	
0.555115	
0.555115	
0.55481	
0.552979	
0.551147	
0.550232	
0.550842	
0.552063	
0.552063	
0.552063	
0.552063	
0.551758	
0.550232	
0.546265	
0.541077	
0.535889	
0.533752	
0.534058	
0.536194	
0.538635	
0.540161	
0.541687	
0.543823	
0.543518	
0.530396	
0.499878	
0.455322	
0.406494	
0.360718	
0.315857	
0.26947	
0.221558	
0.174255	
0.131531	
0.0927734	
0.0576782	
0.0265503	
0.000305176	
-0.017395	
-0.0259399	
-0.0262451	
-0.0216675	
-0.0186157	
-0.0189209	
-0.0219727	
-0.0247192	
-0.0274658	
-0.0305176	
-0.032959	
-0.0350952	
-0.0363159	
-0.0378418	
-0.0384521	
-0.0384521	
-0.0390625	
-0.039978	
-0.0402832	
-0.0390625	
-0.0378418	
-0.0384521	
-0.0402832	
-0.0415039	
-0.043335	
-0.0445557	
-0.0442505	
-0.0427246	
-0.0411987	
-0.0421143	
-0.0442505	
-0.0463867	
-0.0476074	
-0.0494385	
-0.0515747	
-0.0518799	
-0.050354	
-0.0479126	
-0.0466919	
-0.0466919	
-0.0466919	
-0.0466919	
-0.0473022	
-0.0488281	
-0.0500488	
-0.050354	
-0.0497437	
-0.0488281	
-0.0491333	
-0.0500488	
-0.0509644	
-0.0512695	
-0.0512695	
-0.0509644	
-0.0497437	
-0.0466919	
-0.0424194	
-0.0402832	
-0.0415039	
-0.0457764	
-0.0506592	
-0.0527954	
-0.0518799	
-0.0509644	
-0.0509644	
-0.0524902	
-0.0531006	
-0.0527954	
-0.0521851	
-0.0521851	
-0.0524902	
-0.0527954	
-0.0531006	
-0.0531006	
-0.0524902	
-0.0527954	
-0.0537109	
-0.0540161	
-0.0534058	
-0.0509644	
-0.0494385	
-0.0491333	
-0.0494385	
-0.0500488	
-0.0494385	
-0.0488281	
-0.0479126	
-0.0469971	
-0.0460815	
-0.0463867	
-0.0476074	
-0.0482178	
-0.0479126	
-0.0473022	
-0.0479126	
-0.0494385	
-0.0506592	
-0.0509644	
-0.0491333	
-0.0424194	
-0.03479	
-0.0296021	
-0.0305176	
-0.0335693	
-0.0338745	
-0.0320435	
-0.0302124	
-0.0299072	
-0.0308228	
-0.0323486	
-0.0326538	
-0.0323486	
-0.0314331	
-0.0311279	
-0.0317383	
-0.0320435	
-0.0323486	
-0.0320435	
-0.0317383	
-0.0314331	
-0.0317383	
-0.0335693	
-0.0360107	
-0.0378418	
-0.0384521	
-0.0378418	
-0.0375366	
-0.0387573	
-0.039978	
-0.0411987	
-0.0405884	
-0.0390625	
-0.0378418	
-0.0384521	
-0.0408936	
-0.043335	
-0.0439453	
-0.0427246	
-0.039978	
-0.0369263	
-0.03479	
-0.0338745	
-0.0332642	
-0.0338745	
-0.0344849	
-0.0363159	
-0.0387573	
-0.0415039	
-0.0427246	
-0.0427246	
-0.0424194	
-0.0421143	
-0.0418091	
-0.0418091	
-0.0408936	
-0.0396729	
-0.038147	
-0.0375366	
-0.0375366	
-0.0375366	
-0.0372314	
-0.0360107	
-0.0341797	
-0.0341797	
-0.0360107	
-0.038147	
-0.0393677	
-0.0384521	
-0.0372314	
-0.0369263	
-0.0366211	
-0.0372314	
-0.0372314	
-0.0372314	
-0.0369263	
-0.0357056	
-0.0332642	
-0.0314331	
-0.0320435	
-0.03479	
-0.0375366	
-0.0387573	
-0.0375366	
-0.0354004	
-0.0335693	
-0.0326538	
-0.032959	
-0.0341797	
-0.0357056	
-0.0378418	
-0.0387573	
-0.0384521	
-0.0375366	
-0.0372314	
-0.0357056	
-0.032959	
-0.0317383	
-0.0320435	
-0.0350952	
-0.0375366	
-0.0384521	
-0.0378418	
-0.0363159	
-0.0350952	
-0.03479	
-0.03479	
-0.0344849	
-0.0335693	
-0.0320435	
-0.0314331	
-0.032959	
-0.0357056	
-0.0363159	
-0.0350952	
-0.032959	
-0.0320435	
-0.0320435	
-0.0320435	
-0.032959	
-0.03479	
-0.0378418	
-0.0387573	
-0.0375366	
-0.0363159	
-0.0357056	
-0.0372314	
-0.0393677	
-0.0402832	
-0.0402832	
-0.0393677	
-0.0393677	
-0.0393677	
-0.0375366	
-0.0360107	
-0.0357056	
-0.0360107	
-0.0357056	
-0.0335693	
-0.0323486	
-0.0326538	
-0.0341797	
-0.0360107	
-0.0357056	
-0.032959	
-0.0299072	
-0.0289917	
-0.0305176	
-0.0320435	
-0.0320435	
-0.0296021	
-0.027771	
-0.0274658	
-0.0283813	
-0.0296021	
-0.0302124	
-0.0311279	
-0.0296021	
-0.0283813	
-0.0344849	
-0.0521851	
-0.0842285	
-0.12207	
-0.161133	
-0.2005	
-0.240173	
-0.281677	
-0.325012	
-0.365906	
-0.399475	
-0.423889	
-0.443115	
-0.461731	
-0.482178	
-0.502014	
-0.520325	
-0.533447	
-0.53894	
-0.53833	
-0.534058	
-0.529175	
-0.525818	
-0.524292	
-0.524597	
-0.524597	
-0.523987	
-0.522461	
-0.52124	
-0.520325	
-0.518799	
-0.516663	
-0.515442	
-0.515442	
-0.516052	
-0.515137	
-0.514832	
-0.513916	
-0.513306	
-0.511169	
-0.508728	
-0.509949	
-0.516968	
-0.527649	
-0.536804	
-0.541382	
-0.540771	
-0.537415	
-0.534058	
-0.531616	
-0.531311	
-0.532532	
-0.533752	
-0.535583	
-0.535278	
-0.533142	
-0.52948	
-0.526733	
-0.525513	
-0.525818	
-0.526733	
-0.528259	
-0.529785	
-0.529785	
-0.527649	
-0.524292	
-0.522156	
-0.520935	
-0.520325	
-0.519714	
-0.520935	
-0.511475	
-0.483093	
-0.437317	
-0.384827	
-0.33783	
-0.295715	
-0.254517	
-0.211792	
-0.167236	
-0.122681	
-0.0836182	
-0.0509644	
-0.0259399	
-0.00976563	
-0.00457764	
-0.00793457	
-0.0137329	
-0.0158691	
-0.0158691	
-0.0149536	
-0.0146484	
-0.0143433	
-0.0128174	
-0.00976563	
-0.00823975	
-0.0088501	
-0.0109863	
-0.012207	
-0.0131226	
-0.0137329	
-0.0143433	
-0.0152588	
-0.0152588	
-0.0149536	
-0.0137329	
-0.012207	
-0.0112915	
-0.0100708	
-0.0088501	
-0.0100708	
-0.0088501	
-0.00213623	
0.010376	
0.022583	
0.0241089	
0.0195313	
0.0149536	
0.0161743	
0.0204468	
0.0213623	
0.0164795	
0.0112915	
0.010376	
0.0137329	
0.017395	
0.0170898	
0.0152588	
0.0119019	
0.00793457	
0.00610352	
0.00610352	
0.00946045	
0.00946045	
0.0106812	
0.0125122	
0.0164795	
0.0192261	
0.00854492	
-0.0119019	
-0.0265503	
-0.0280762	
-0.012207	
0.00305176	
0.0134277	
0.017395	
0.0183105	
0.0167847	
0.00823975	
-0.00610352	
-0.0140381	
-0.0115967	
0.000915527	
0.00976563	
0.0125122	
0.0140381	
0.0149536	
0.015564	
0.0128174	
0.0106812	
0.0106812	
0.0143433	
0.0183105	
0.0186157	
0.0161743	
0.0128174	
0.00640869	
-0.00488281	
-0.012207	
-0.010376	
0.00244141	
0.0131226	
0.0170898	
0.0167847	
0.0164795	
0.0167847	
0.0152588	
0.0137329	
0.0128174	
0.0128174	
0.0119019	
0.0100708	
0.00823975	
0.00823975	
0.00976563	
0.0109863	
0.0109863	
0.0106812	
0.00976563	
0.00854492	
0.00701904	
0.00701904	
0.0112915	
0.0167847	
0.0210571	
0.0201416	
0.0161743	
0.0131226	
0.012207	
0.0134277	
0.0161743	
0.0186157	
0.0189209	
0.0170898	
0.015564	
0.0152588	
0.015564	
0.015564	
0.0152588	
0.015564	
0.0161743	
0.0164795	
0.015564	
0.0152588	
0.0149536	
0.015564	
0.0146484	
0.0119019	
0.00915527	
0.00854492	
0.00946045	
0.0115967	
0.0137329	
0.0152588	
0.0161743	
0.0167847	
0.0177002	
0.0180054	
0.0170898	
0.0146484	
0.0125122	
0.0128174	
0.0152588	
0.0164795	
0.0149536	
0.0128174	
0.0128174	
0.0152588	
0.0180054	
0.0189209	
0.0186157	
0.0186157	
0.0192261	
0.0195313	
0.0186157	
0.0183105	
0.0183105	
0.0201416	
0.0213623	
0.0210571	
0.0192261	
0.0167847	
0.0161743	
0.0244141	
0.045166	
0.0793457	
0.121155	
0.163879	
0.205688	
0.246277	
0.287476	
0.327454	
0.367737	
0.405579	
0.441895	
0.475159	
0.504456	
0.530396	
0.552368	
0.570374	
0.583801	
0.590515	
0.59082	
0.587463	
0.582886	
0.580444	
0.579224	
0.577698	
0.575562	
0.57373	
0.571289	
0.568848	
0.566406	
0.566101	
0.567322	
0.567627	
0.566406	
0.563965	
0.561829	
0.561218	
0.561523	
0.560913	
0.560303	
0.559998	
0.560303	
0.559692	
0.557861	
0.555115	
0.552979	
0.55481	
0.561523	
0.571899	
0.579224	
0.578918	
0.572815	
0.565796	
0.562439	
0.560913	
0.561218	
0.559998	
0.557556	
0.55603	
0.55542	
0.554504	
0.553284	
0.551453	
0.549622	
0.549622	
0.551147	
0.552673	
0.553589	
0.552673	
0.549927	
0.546875	
0.542908	
0.540161	
0.536804	
0.523376	
0.4953	
0.452576	
0.403748	
0.353699	
0.302734	
0.250244	
0.199585	
0.154419	
0.117188	
0.0875854	
0.0628662	
0.043335	
0.0317383	
0.0289917	
0.0296021	
0.0286865	
0.0253296	
0.0219727	
0.020752	
0.0213623	
0.0216675	
0.0210571	
0.0180054	
0.0131226	
0.00976563	
0.00976563	
0.012207	
0.0134277	
0.0119019	
0.0100708	
0.00976563	
0.0106812	
0.0115967	
0.0125122	
0.0143433	
0.0149536	
0.0128174	
0.00915527	
0.00701904	
0.00823975	
0.00793457	
0.00152588	
-0.0115967	
-0.0238037	
-0.0289917	
-0.0247192	
-0.0177002	
-0.0131226	
-0.0128174	
-0.0143433	
-0.0164795	
-0.0183105	
-0.0201416	
-0.0222778	
-0.0241089	
-0.0247192	
-0.0244141	
-0.0238037	
-0.022583	
-0.020752	
-0.0192261	
-0.0189209	
-0.0189209	
-0.0195313	
-0.0198364	
-0.0204468	
-0.0222778	
-0.0238037	
-0.0256348	
-0.0271606	
-0.0268555	
-0.0262451	
-0.0247192	
-0.0244141	
-0.0253296	
-0.0265503	
-0.0271606	
-0.0259399	
-0.0262451	
-0.0286865	
-0.0323486	
-0.0350952	
-0.0357056	
-0.0350952	
-0.0332642	
-0.0299072	
-0.0265503	
-0.0244141	
-0.0241089	
-0.0253296	
-0.0268555	
-0.0283813	
-0.0302124	
-0.032959	
-0.0369263	
-0.0424194	
-0.0463867	
-0.0469971	
-0.0448608	
-0.0427246	
-0.0421143	
-0.0421143	
-0.039978	
-0.0378418	
-0.0369263	
-0.0387573	
-0.0415039	
-0.0424194	
-0.0421143	
-0.0427246	
-0.0442505	
-0.0457764	
-0.0454712	
-0.0439453	
-0.0430298	
-0.0427246	
-0.0421143	
-0.0424194	
-0.043335	
-0.0448608	
-0.0457764	
-0.0457764	
-0.0457764	
-0.0454712	
-0.0445557	
-0.0439453	
-0.0442505	
-0.045166	
-0.0457764	
-0.045166	
-0.0445557	
-0.0442505	
-0.0436401	
-0.043335	
-0.0427246	
-0.0430298	
-0.0430298	
-0.0430298	
-0.0436401	
-0.043335	
-0.0418091	
-0.0402832	
-0.039978	
-0.0408936	
-0.0411987	
-0.0405884	
-0.0402832	
-0.0408936	
-0.0421143	
-0.0427246	
-0.0436401	
-0.0445557	
-0.0448608	
-0.0445557	
-0.0430298	
-0.0424194	
-0.0427246	
-0.0439453	
-0.0445557	
-0.0436401	
-0.0418091	
-0.0408936	
-0.0411987	
-0.0421143	
-0.0421143	
-0.0415039	
-0.0405884	
-0.039978	
-0.0408936	
-0.0424194	
-0.0445557	
-0.0454712	
-0.0445557	
-0.0439453	
-0.0445557	
-0.0457764	
-0.0463867	
-0.0460815	
-0.0445557	
-0.0439453	
-0.0427246	
-0.0418091	
-0.0418091	
-0.0427246	
-0.045166	
-0.0463867	
-0.0457764	
-0.045166	
-0.045166	
-0.0448608	
-0.0445557	
-0.0445557	
-0.0448608	
-0.0442505	
-0.0430298	
-0.0411987	
-0.0411987	
-0.0427246	
-0.0445557	
-0.0448608	
-0.043335	
-0.0418091	
-0.0411987	
-0.0421143	
-0.0427246	
-0.0424194	
-0.0418091	
-0.0408936	
-0.0396729	
-0.0393677	
-0.0396729	
-0.0402832	
-0.0402832	
-0.0405884	
-0.0411987	
-0.0430298	
-0.043335	
-0.0418091	
-0.0402832	
-0.0390625	
-0.0396729	
-0.0402832	
-0.0408936	
-0.0418091	
-0.0421143	
-0.0430298	
-0.0439453	
-0.0445557	
-0.0442505	
-0.0430298	
-0.0427246	
-0.0418091	
-0.0408936	
-0.0405884	
-0.039978	
-0.0408936	
-0.0430298	
-0.045166	
-0.0466919	
-0.0460815	
-0.0445557	
-0.0497437	
-0.0656128	
-0.0933838	
-0.126343	
-0.160828	
-0.196228	
-0.232849	
-0.270081	
-0.307617	
-0.344849	
-0.381165	
-0.414734	
-0.445557	
-0.473022	
-0.496521	
-0.514526	
-0.525513	
-0.529785	
-0.529175	
-0.526733	
-0.525513	
-0.525208	
-0.524902	
-0.524292	
-0.524597	
-0.526123	
-0.526428	
-0.524902	
-0.523071	
-0.520935	
-0.520935	
-0.520325	
-0.522766	
-0.524292	
-0.525208	
-0.523682	
-0.521851	
-0.521851	
-0.522461	
-0.522156	
-0.520325	
-0.522156	
-0.527954	
-0.536499	
-0.544434	
-0.550232	
-0.553284	
-0.554199	
-0.552368	
-0.549622	
-0.545959	
-0.543213	
-0.542297	
-0.544128	
-0.54657	
-0.547485	
-0.545044	
-0.541382	
-0.539856	
-0.540161	
-0.541382	
-0.540466	
-0.540161	
-0.540161	
-0.539246	
-0.536499	
-0.534058	
-0.532837	
-0.533142	
-0.531616	
-0.53009	
-0.526428	
-0.504761	
-0.463562	
-0.408325	
-0.353699	
-0.306396	
-0.257874	
-0.208435	
-0.159912	
-0.115967	
-0.0756836	
-0.0384521	
-0.00610352	
0.0198364	
0.0350952	
0.039978	
0.0375366	
0.0326538	
0.0289917	
0.027771	
0.027771	
0.0292969	
0.0296021	
0.0289917	
0.0283813	
0.0292969	
0.0296021	
0.0283813	
0.0259399	
0.0234985	
0.0210571	
0.0186157	
0.017395	
0.017395	
0.0186157	
0.0195313	
0.0198364	
0.0204468	
0.0210571	
0.0216675	
0.0231934	
0.0241089	
0.0247192	
0.0244141	
0.0238037	
0.0238037	
0.0247192	
0.0259399	
0.0268555	
0.0262451	
0.0256348	
0.0253296	
0.0250244	
0.0247192	
0.0244141	
0.0250244	
0.0262451	
0.0274658	
0.0280762	
0.027771	
0.0256348	
0.0234985	
0.0222778	
0.020752	
0.0204468	
0.0204468	
0.0210571	
0.0216675	
0.0216675	
0.0213623	
0.0216675	
0.022583	
0.0241089	
0.0259399	
0.0268555	
0.0268555	
0.0256348	
0.0250244	
0.0256348	
0.0262451	
0.0265503	
0.0256348	
0.0241089	
0.0222778	
0.0210571	
0.0216675	
0.022583	
0.0238037	
0.0238037	
0.0244141	
0.0247192	
0.0247192	
0.0241089	
0.0241089	
0.0238037	
0.022583	
0.0198364	
0.0186157	
0.0189209	
0.0198364	
0.0204468	
0.020752	
0.0216675	
0.022583	
0.0222778	
0.0219727	
0.0219727	
0.0219727	
0.0219727	
0.0210571	
0.0195313	
0.0195313	
0.0192261	
0.0189209	
0.0189209	
0.0189209	
0.0195313	
0.0201416	
0.0204468	
0.020752	
0.0201416	
0.0204468	
0.0201416	
0.0204468	
0.0195313	
0.0186157	
0.0177002	
0.0180054	
0.0192261	
0.0198364	
0.0186157	
0.0167847	
0.015564	
0.0167847	
0.0192261	
0.0213623	
0.022583	
0.0219727	
0.0198364	
0.0180054	
0.0170898	
0.017395	
0.0180054	
0.0186157	
0.0195313	
0.020752	
0.020752	
0.0195313	
0.0186157	
0.0180054	
0.0170898	
0.0158691	
0.0146484	
0.0140381	
0.0134277	
0.0125122	
0.0109863	
0.00976563	
0.0088501	
0.00976563	
0.00976563	
0.0137329	
0.0289917	
0.0588989	
0.0994873	
0.141296	
0.18219	
0.223694	
0.266113	
0.307007	
0.345764	
0.383301	
0.418701	
0.450745	
0.478821	
0.501099	
0.515442	
0.517883	
0.51239	
0.505981	
0.504761	
0.507507	
0.510254	
0.511475	
0.511169	
0.510559	
0.508423	
0.504456	
0.500488	
0.499268	
0.500183	
0.502319	
0.50354	
0.503235	
0.499573	
0.493774	
0.488586	
0.486755	
0.48645	
0.48645	
0.487366	
0.494995	
0.51178	
0.532532	
0.548401	
0.556335	
0.557556	
0.555115	
0.551147	
0.546265	
0.544434	
0.544128	
0.542603	
0.540161	
0.536499	
0.534668	
0.534058	
0.531006	
0.52887	
0.528259	
0.530396	
0.531616	
0.529785	
0.526123	
0.522461	
0.520325	
0.518799	
0.519104	
0.52002	
0.519409	
0.518188	
0.516663	
0.515442	
0.514832	
0.513306	
0.513306	
0.512085	
0.503235	
0.478821	
0.440369	
0.395203	
0.349731	
0.303955	
0.255737	
0.206299	
0.157471	
0.111694	
0.071106	
0.0375366	
0.0119019	
-0.00549316	
-0.0152588	
-0.017395	
-0.015564	
-0.0143433	
-0.0158691	
-0.0198364	
-0.022583	
-0.0244141	
-0.0247192	
-0.0244141	
-0.0241089	
-0.0244141	
-0.0256348	
-0.0265503	
-0.0268555	
-0.0271606	
-0.0280762	
-0.0289917	
-0.0283813	
-0.0268555	
-0.0265503	
-0.0286865	
-0.0323486	
-0.0350952	
-0.0363159	
-0.03479	
-0.0332642	
-0.0354004	
-0.0424194	
-0.0521851	
-0.057373	
-0.0561523	
-0.0500488	
-0.0445557	
-0.043335	
-0.045166	
-0.0491333	
-0.0531006	
-0.0561523	
-0.0576782	
-0.0582886	
-0.0576782	
-0.0570679	
-0.0558472	
-0.0540161	
-0.0518799	
-0.0500488	
-0.0494385	
-0.0497437	
-0.0500488	
-0.050354	
-0.050354	
-0.0509644	
-0.0518799	
-0.0521851	
-0.0527954	
-0.0540161	
-0.0543213	
-0.0546265	
-0.0549316	
-0.0546265	
-0.0537109	
-0.0518799	
-0.0509644	
-0.0515747	
-0.0527954	
-0.0527954	
-0.0518799	
-0.0497437	
-0.0469971	
-0.045166	
-0.0442505	
-0.0448608	
-0.0457764	
-0.0463867	
-0.0476074	
-0.0491333	
-0.0509644	
-0.0524902	
-0.0531006	
-0.0521851	
-0.0509644	
-0.050354	
-0.0500488	
-0.0506592	
-0.0512695	
-0.0518799	
-0.0531006	
-0.0549316	
-0.055542	
-0.0549316	
-0.0534058	
-0.0537109	
-0.0570679	
-0.0616455	
-0.0640869	
-0.0637817	
-0.062561	
-0.0610352	
-0.0585938	
-0.0558472	
-0.0543213	
-0.055542	
-0.0592041	
-0.0616455	
-0.0637817	
-0.0650024	
-0.0662231	
-0.0665283	
-0.0662231	
-0.0646973	
-0.0622559	
-0.0604248	
-0.0598145	
-0.06073	
-0.0613403	
-0.0616455	
-0.0616455	
-0.062561	
-0.0646973	
-0.0665283	
-0.0680542	
-0.0689697	
-0.0692749	
-0.0692749	
-0.0683594	
-0.0671387	
-0.065918	
-0.0650024	
-0.0643921	
-0.0634766	
-0.0622559	
-0.06073	
-0.0604248	
-0.0619507	
-0.0634766	
-0.0640869	
-0.0640869	
-0.0631714	
-0.062561	
-0.0628662	
-0.0628662	
-0.062561	
-0.0622559	
-0.0622559	
-0.062561	
-0.0616455	
-0.0595093	
-0.0585938	
-0.0592041	
-0.0595093	
-0.0592041	
-0.0579834	
-0.0576782	
-0.0582886	
-0.0588989	
-0.0579834	
-0.0570679	
-0.0570679	
-0.0579834	
-0.0582886	
-0.057373	
-0.055542	
-0.0549316	
-0.0558472	
-0.0576782	
-0.0601196	
-0.06073	
-0.0604248	
-0.0592041	
-0.0582886	
-0.0585938	
-0.0579834	
-0.0570679	
-0.0561523	
-0.0561523	
-0.0570679	
-0.0570679	
-0.0567627	
-0.0564575	
-0.0576782	
-0.0595093	
-0.0604248	
-0.0604248	
-0.0601196	
-0.0592041	
-0.0585938	
-0.0582886	
-0.0582886	
-0.0588989	
-0.0598145	
-0.0613403	
-0.0628662	
-0.062561	
-0.0616455	
-0.0610352	
-0.0610352	
-0.0613403	
-0.0628662	
-0.0637817	
-0.0628662	
-0.0610352	
-0.0588989	
-0.0567627	
-0.0558472	
-0.0558472	
-0.0570679	
-0.0585938	
-0.0598145	
-0.0592041	
-0.0582886	
-0.0567627	
-0.0561523	
-0.057373	
-0.0582886	
-0.057373	
-0.0549316	
-0.0521851	
-0.0512695	
-0.0531006	
-0.0552368	
-0.0567627	
-0.0604248	
-0.062561	
-0.0643921	
-0.062561	
-0.0595093	
-0.057373	
-0.0567627	
-0.0570679	
-0.0576782	
-0.0570679	
-0.0558472	
-0.0543213	
-0.0543213	
-0.0546265	
-0.0546265	
-0.0537109	
-0.0540161	
-0.0564575	
-0.0595093	
-0.0613403	
-0.0604248	
-0.0595093	
-0.0585938	
-0.057373	
-0.055542	
-0.0537109	
-0.0549316	
-0.0598145	
-0.0653076	
-0.067749	
-0.065918	
-0.0637817	
-0.0628662	
-0.0640869	
-0.0714111	
-0.0875854	
-0.115662	
-0.150146	
-0.185242	
-0.221558	
-0.260925	
-0.305481	
-0.353088	
-0.394287	
-0.426636	
-0.450134	
-0.473022	
-0.496826	
-0.518188	
-0.538635	
-0.554199	
-0.559692	
-0.554504	
-0.543823	
-0.540771	
-0.545044	
-0.550232	
-0.552979	
-0.552063	
-0.549622	
-0.545654	
-0.541992	
-0.540771	
-0.541077	
-0.541077	
-0.539551	
-0.536804	
-0.534058	
-0.531311	
-0.527954	
-0.524597	
-0.522156	
-0.522461	
-0.523376	
-0.527954	
-0.535889	
-0.546875	
-0.557861	
-0.565186	
-0.567932	
-0.568848	
-0.567017	
-0.563965	
-0.560608	
-0.559082	
-0.559387	
-0.561829	
-0.562439	
-0.561829	
-0.559692	
-0.558777	
-0.558472	
-0.557251	
-0.554504	
-0.551758	
-0.549011	
-0.548096	
-0.545654	
-0.544434	
-0.544434	
-0.531006	
-0.499268	
-0.451965	
-0.405579	
-0.368652	
-0.334167	
-0.29541	
-0.255432	
-0.214539	
-0.173035	
-0.129089	
-0.0872803	
-0.0509644	
-0.0231934	
-0.00152588	
0.0109863	
0.0146484	
0.0109863	
0.00671387	
0.00640869	
0.00793457	
0.00854492	
0.00640869	
0.00457764	
0.00305176	
0.00244141	
0.00152588	
0.000915527	
0.000610352	
0.000915527	
0.000915527	
0.0012207	
0.000610352	
-0.000915527	
-0.00244141	
-0.0012207	
0.00183105	
0.00488281	
0.00579834	
0.00396729	
0.00183105	
0.000610352	
0	
0.000915527	
0.00152588	
0.000610352	
0.000305176	
0.000915527	
0.00274658	
0.00396729	
0.00244141	
0.000610352	
0	
0.00183105	
0.00396729	
0.00457764	
0.00427246	
0.00335693	
0.00335693	
0.00305176	
0.00274658	
0.00366211	
0.00518799	
0.00640869	
0.00671387	
0.00549316	
0.00427246	
0.00335693	
0.00335693	
0.00366211	
0.00366211	
0.00274658	
0.00152588	
0.0012207	
0.00244141	
0.00335693	
0.00305176	
0.000610352	
-0.00152588	
-0.00274658	
-0.00335693	
-0.00335693	
-0.00305176	
-0.00152588	
-0.000305176	
0.000610352	
-0.000305176	
-0.000915527	
-0.000915527	
-0.000915527	
-0.000305176	
-0.0012207	
-0.00335693	
-0.00518799	
-0.00549316	
-0.00457764	
-0.00366211	
-0.00518799	
-0.00732422	
-0.00915527	
-0.00823975	
-0.00610352	
-0.00305176	
-0.0012207	
-0.000915527	
-0.000915527	
-0.000610352	
0.000915527	
0.00152588	
0.00244141	
0.00305176	
0.00274658	
0.00183105	
0.000305176	
-0.000305176	
0.000305176	
0.000915527	
0.000610352	
-0.000610352	
-0.0012207	
-0.000915527	
0.000305176	
0.00183105	
0.00366211	
0.00488281	
0.00457764	
0.00305176	
0.00183105	
0.0012207	
0.000305176	
-0.000915527	
-0.00305176	
-0.00427246	
-0.00457764	
-0.00457764	
-0.00427246	
-0.00244141	
0.000610352	
0.00427246	
0.00518799	
0.00335693	
0.00152588	
0.000610352	
0.0012207	
0.00183105	
0.00244141	
0.00183105	
0.000610352	
-0.000305176	
-0.000305176	
-0.00183105	
-0.00427246	
-0.00488281	
-0.00305176	
0.0012207	
0.00305176	
0.00213623	
-0.000610352	
-0.00366211	
-0.00518799	
-0.00671387	
-0.0088501	
-0.00915527	
-0.00732422	
-0.00335693	
-0.00152588	
-0.00366211	
-0.00640869	
-0.00793457	
-0.00671387	
-0.00488281	
-0.00396729	
-0.00488281	
-0.00701904	
-0.00915527	
-0.010376	
-0.010376	
-0.0100708	
-0.00915527	
-0.00793457	
-0.00762939	
-0.00732422	
-0.00701904	
-0.00671387	
-0.00701904	
-0.00732422	
-0.00762939	
-0.00610352	
-0.00396729	
-0.00396729	
-0.00488281	
-0.00701904	
-0.00793457	
-0.00793457	
-0.00732422	
-0.00671387	
-0.00457764	
-0.0012207	
0.00213623	
0.00427246	
0.00335693	
0.0012207	
-0.0012207	
-0.00335693	
-0.00396729	
-0.00366211	
-0.00396729	
-0.00427246	
-0.00152588	
0.0128174	
0.0415039	
0.0793457	
0.118408	
0.155334	
0.192871	
0.232849	
0.273438	
0.313721	
0.352783	
0.39032	
0.425415	
0.456543	
0.482788	
0.505676	
0.527039	
0.54718	
0.563049	
0.571594	
0.571899	
0.567932	
0.563049	
0.560913	
0.561523	
0.563049	
0.563049	
0.560608	
0.558167	
0.55603	
0.55481	
0.554199	
0.553894	
0.554199	
0.554199	
0.551453	
0.54718	
0.543518	
0.541992	
0.540466	
0.539246	
0.537415	
0.535583	
0.533447	
0.536499	
0.545959	
0.558472	
0.566406	
0.565796	
0.561523	
0.558167	
0.556946	
0.55542	
0.553589	
0.551758	
0.550537	
0.549927	
0.548096	
0.546875	
0.545959	
0.545044	
0.544739	
0.544739	
0.544128	
0.542297	
0.540161	
0.538025	
0.536804	
0.535278	
0.534363	
0.534363	
0.534973	
0.537415	
0.540466	
0.536194	
0.515747	
0.478516	
0.433044	
0.387573	
0.342407	
0.295715	
0.249634	
0.205383	
0.162964	
0.12207	
0.0848389	
0.0540161	
0.0305176	
0.0131226	
0.00396729	
0.00152588	
0.00427246	
0.00610352	
0.00305176	
-0.00366211	
-0.00946045	
-0.0131226	
-0.0143433	
-0.0152588	
-0.0161743	
-0.0183105	
-0.0204468	
-0.0213623	
-0.020752	
-0.0192261	
-0.0201416	
-0.022583	
-0.0256348	
-0.0253296	
-0.0222778	
-0.0183105	
-0.015564	
-0.0149536	
-0.0149536	
-0.0161743	
-0.020752	
-0.0296021	
-0.0405884	
-0.0500488	
-0.0537109	
-0.0515747	
-0.0469971	
-0.0427246	
-0.0427246	
-0.0448608	
-0.0463867	
-0.0469971	
-0.0476074	
-0.0497437	
-0.0524902	
-0.0537109	
-0.0531006	
-0.0521851	
-0.0518799	
-0.0531006	
-0.0552368	
-0.057373	
-0.0582886	
-0.0576782	
-0.0567627	
-0.055542	
-0.0549316	
-0.0546265	
-0.0552368	
-0.0558472	
-0.0567627	
-0.0570679	
-0.0570679	
-0.057373	
-0.0567627	
-0.0558472	
-0.0561523	
-0.0576782	
-0.0595093	
-0.0610352	
-0.0604248	
-0.0585938	
-0.0564575	
-0.0558472	
-0.0570679	
-0.0585938	
-0.0588989	
-0.057373	
-0.0564575	
-0.0561523	
-0.0564575	
-0.0558472	
-0.0546265	
-0.0543213	
-0.055542	
-0.0570679	
-0.0576782	
-0.0576782	
-0.0579834	
-0.0592041	
-0.0592041	
-0.0579834	
-0.0564575	
-0.0567627	
-0.0588989	
-0.06073	
-0.0610352	
-0.0598145	
-0.0585938	
-0.0576782	
-0.0588989	
-0.0613403	
-0.0646973	
-0.0665283	
-0.0640869	
-0.0610352	
-0.0585938	
-0.0588989	
-0.0601196	
-0.0610352	
-0.06073	
-0.0610352	
-0.0631714	
-0.0653076	
-0.0653076	
-0.0637817	
-0.0613403	
-0.06073	
-0.0604248	
-0.0631714	
-0.0650024	
-0.065918	
-0.0634766	
-0.06073	
-0.06073	
-0.0619507	
-0.0640869	
-0.0643921	
-0.0628662	
-0.0610352	
-0.0601196	
-0.0616455	
-0.0631714	
-0.0634766	
-0.0628662	
-0.0619507	
-0.0616455	
-0.0619507	
-0.062561	
-0.0646973	
-0.0668335	
-0.0671387	
-0.065918	
-0.0643921	
-0.0643921	
-0.0650024	
-0.065918	
-0.0662231	
-0.0656128	
-0.0640869	
-0.0622559	
-0.0616455	
-0.0622559	
-0.0628662	
-0.0622559	
-0.0604248	
-0.0598145	
-0.0598145	
-0.0604248	
-0.0610352	
-0.0604248	
-0.0592041	
-0.0582886	
-0.0582886	
-0.0588989	
-0.0595093	
-0.0588989	
-0.0579834	
-0.0579834	
-0.0585938	
-0.0595093	
-0.06073	
-0.0610352	
-0.06073	
-0.0601196	
-0.0610352	
-0.0631714	
-0.0653076	
-0.0656128	
-0.0650024	
-0.0646973	
-0.0640869	
-0.0628662	
-0.0616455	
-0.0610352	
-0.0619507	
-0.0634766	
-0.0646973	
-0.0634766	
-0.0592041	
-0.0527954	
-0.0482178	
-0.0469971	
-0.0485229	
-0.0500488	
-0.0500488	
-0.0500488	
-0.0506592	
-0.0515747	
-0.0518799	
-0.0521851	
-0.0527954	
-0.0537109	
-0.0546265	
-0.0543213	
-0.0540161	
-0.0540161	
-0.0537109	
-0.0540161	
-0.0552368	
-0.0561523	
-0.0561523	
-0.0549316	
-0.0540161	
-0.0549316	
-0.0552368	
-0.0552368	
-0.0558472	
-0.0570679	
-0.0585938	
-0.0585938	
-0.0576782	
-0.055542	
-0.0534058	
-0.0515747	
-0.0509644	
-0.0527954	
